-76749,-2.7909e+05,0
-76826,-2.7883e+05,0
-75801,-2.7894e+05,0
-76005,-2.7892e+05,0
-74507,-2.7918e+05,0
-75056,-2.7904e+05,0
-74917,-2.7889e+05,0
-74930,-2.7867e+05,0
-74823,-2.7872e+05,0
-74553,-2.7881e+05,0
-75155,-2.7867e+05,0
-75246,-2.7849e+05,0
-76358,-2.7853e+05,0
-76800,-2.7817e+05,0
-76864,-2.782e+05,0
-78015,-2.7824e+05,0
-78590,-2.7798e+05,0
-78726,-2.7802e+05,0
-79534,-2.7768e+05,0
-79788,-2.7777e+05,0
-79734,-2.7778e+05,0
-80312,-2.7728e+05,0
-79712,-2.7734e+05,0
-79854,-2.7777e+05,0
-80186,-2.7746e+05,0
-79345,-2.7738e+05,0
-78967,-2.7778e+05,0
-78615,-2.7777e+05,0
-77651,-2.7789e+05,0
-76991,-2.7813e+05,0
-76128,-2.7815e+05,0
-75994,-2.7875e+05,0
-75274,-2.7836e+05,0
-74656,-2.7839e+05,0
-74617,-2.7873e+05,0
-73494,-2.7927e+05,0
-72483,-2.7921e+05,0
-72838,-2.7879e+05,0
-72210,-2.7905e+05,0
-72200,-2.7921e+05,0
-72072,-2.7953e+05,0
-71395,-2.7903e+05,0
-71625,-2.7892e+05,0
-71625,-2.7888e+05,0
-72142,-2.7829e+05,0
-72332,-2.7816e+05,0
-72524,-2.7765e+05,0
-72099,-2.7751e+05,0
-72755,-2.7723e+05,0
-73465,-2.7699e+05,0
-73857,-2.7638e+05,0
-75024,-2.7673e+05,0
-75247,-2.7664e+05,0
-76026,-2.766e+05,0
-75759,-2.77e+05,0
-76045,-2.769e+05,0
-75979,-2.7655e+05,0
-76583,-2.7689e+05,0
-77600,-2.7676e+05,0
-77787,-2.7783e+05,0
-77351,-2.7735e+05,0
-77836,-2.7796e+05,0
-77041,-2.779e+05,0
-76829,-2.7795e+05,0
-76625,-2.7803e+05,0
-75251,-2.7802e+05,0
-75154,-2.7814e+05,0
-74107,-2.7824e+05,0
-73155,-2.7822e+05,0
-73135,-2.7848e+05,0
-72522,-2.7823e+05,0
-72214,-2.7844e+05,0
-71818,-2.7844e+05,0
-71772,-2.7838e+05,0
-72179,-2.786e+05,0
-73002,-2.786e+05,0
-73508,-2.7922e+05,0
-74357,-2.7842e+05,0
-74690,-2.7828e+05,0
-74869,-2.7802e+05,0
-74312,-2.7853e+05,0
-75145,-2.7708e+05,0
-75470,-2.771e+05,0
-76661,-2.7706e+05,0
-76426,-2.774e+05,0
-77844,-2.7658e+05,0
-78368,-2.773e+05,0
-78448,-2.7776e+05,0
-79307,-2.7683e+05,0
-78934,-2.7724e+05,0
-79347,-2.7748e+05,0
-79137,-2.7722e+05,0
-78834,-2.7755e+05,0
-78780,-2.7716e+05,0
-78439,-2.78e+05,0
-77723,-2.7815e+05,0
-77208,-2.7808e+05,0
-77709,-2.7832e+05,0
-76902,-2.7832e+05,0
-75848,-2.7894e+05,0
-75145,-2.79e+05,0
-74358,-2.7897e+05,0
-73408,-2.7863e+05,0
-72820,-2.7969e+05,0
-72955,-2.7919e+05,0
-73213,-2.7891e+05,0
-72526,-2.7872e+05,0
-71646,-2.788e+05,0
-71036,-2.7822e+05,0
-70807,-2.7851e+05,0
-71067,-2.7843e+05,0
-70132,-2.7827e+05,0
-70944,-2.7786e+05,0
-71650,-2.776e+05,0
-71500,-2.7772e+05,0
-73287,-2.7724e+05,0
-73606,-2.7686e+05,0
-74248,-2.7691e+05,0
-75350,-2.7661e+05,0
-75796,-2.7651e+05,0
-75900,-2.7656e+05,0
-76916,-2.7744e+05,0
-76369,-2.7752e+05,0
-76654,-2.7683e+05,0
-77442,-2.7705e+05,0
-77282,-2.7702e+05,0
-77235,-2.7715e+05,0
-77090,-2.7723e+05,0
-76870,-2.7767e+05,0
-77175,-2.7734e+05,0
-76167,-2.7774e+05,0
-74721,-2.7859e+05,0
-74444,-2.7844e+05,0
-73721,-2.7863e+05,0
-73654,-2.7826e+05,0
-72864,-2.7817e+05,0
-72771,-2.7897e+05,0
-72460,-2.7875e+05,0
-72217,-2.7866e+05,0
-72048,-2.7857e+05,0
-72065,-2.7866e+05,0
-72102,-2.7864e+05,0
-72400,-2.7833e+05,0
-72707,-2.7873e+05,0
-73102,-2.7801e+05,0
-73962,-2.7832e+05,0
-74152,-2.7851e+05,0
-73819,-2.775e+05,0
-75123,-2.7767e+05,0
-75280,-2.7731e+05,0
-75502,-2.7704e+05,0
-76247,-2.7675e+05,0
-76846,-2.7707e+05,0
-76838,-2.7706e+05,0
-77252,-2.7616e+05,0
-76901,-2.7667e+05,0
-77614,-2.7707e+05,0
-77175,-2.7711e+05,0
-77075,-2.7706e+05,0
-76963,-2.7689e+05,0
-75756,-2.7639e+05,0
-75803,-2.7718e+05,0
-74393,-2.7733e+05,0
-74047,-2.7747e+05,0
-73638,-2.7713e+05,0
-72926,-2.7754e+05,0
-71505,-2.7804e+05,0
-71959,-2.7807e+05,0
-70710,-2.7837e+05,0
-69979,-2.7874e+05,0
-69355,-2.7843e+05,0
-69005,-2.7778e+05,0
-69220,-2.7812e+05,0
-69522,-2.7832e+05,0
-69021,-2.7751e+05,0
-69268,-2.7726e+05,0
-69346,-2.7735e+05,0
-70607,-2.7753e+05,0
-70968,-2.7699e+05,0
-71597,-2.7717e+05,0
-71729,-2.7693e+05,0
-72723,-2.7713e+05,0
-73990,-2.7709e+05,0
-75353,-2.7711e+05,0
-75822,-2.7734e+05,0
-77891,-2.7786e+05,0
-78073,-2.7734e+05,0
-77385,-2.7749e+05,0
-78259,-2.773e+05,0
-77728,-2.7736e+05,0
-77556,-2.7703e+05,0
-77020,-2.7746e+05,0
-77780,-2.777e+05,0
-76739,-2.7722e+05,0
-75467,-2.7768e+05,0
-74875,-2.7712e+05,0
-74675,-2.7752e+05,0
-74450,-2.7705e+05,0
-73088,-2.7722e+05,0
-72960,-2.7724e+05,0
-71939,-2.7748e+05,0
-71625,-2.7786e+05,0
-71331,-2.7773e+05,0
-71457,-2.7748e+05,0
-70553,-2.7755e+05,0
-70769,-2.7727e+05,0
-70108,-2.7757e+05,0
-70752,-2.7861e+05,0
-71438,-2.7807e+05,0
-72137,-2.7837e+05,0
-72752,-2.7797e+05,0
-73043,-2.783e+05,0
-73900,-2.785e+05,0
-74436,-2.7797e+05,0
-74934,-2.7782e+05,0
-76189,-2.7765e+05,0
-76301,-2.772e+05,0
-77104,-2.7784e+05,0
-77873,-2.7766e+05,0
-77559,-2.7752e+05,0
-77628,-2.7763e+05,0
-77563,-2.7756e+05,0
-77198,-2.7778e+05,0
-77013,-2.7659e+05,0
-77066,-2.772e+05,0
-76266,-2.7735e+05,0
-76596,-2.771e+05,0
-75892,-2.7715e+05,0
-75932,-2.7733e+05,0
-75941,-2.7702e+05,0
-75343,-2.777e+05,0
-75085,-2.7776e+05,0
-74420,-2.7833e+05,0
-73740,-2.7795e+05,0
-73574,-2.7821e+05,0
-72574,-2.7835e+05,0
-72261,-2.7814e+05,0
-72180,-2.7775e+05,0
-72278,-2.783e+05,0
-72367,-2.7823e+05,0
-71726,-2.7843e+05,0
-71664,-2.7824e+05,0
-72659,-2.7829e+05,0
-72765,-2.7816e+05,0
-72971,-2.785e+05,0
-73410,-2.781e+05,0
-73650,-2.7742e+05,0
-73627,-2.7799e+05,0
-75027,-2.777e+05,0
-75664,-2.7774e+05,0
-75630,-2.7775e+05,0
-76329,-2.7715e+05,0
-77357,-2.7738e+05,0
-76477,-2.774e+05,0
-77164,-2.7683e+05,0
-77737,-2.7754e+05,0
-77620,-2.7749e+05,0
-78220,-2.7696e+05,0
-77898,-2.7732e+05,0
-77802,-2.765e+05,0
-76924,-2.7742e+05,0
-76152,-2.7729e+05,0
-76742,-2.7739e+05,0
-75425,-2.7777e+05,0
-75723,-2.7724e+05,0
-74222,-2.7774e+05,0
-73998,-2.7779e+05,0
-73179,-2.7805e+05,0
-72760,-2.7796e+05,0
-71897,-2.781e+05,0
-71503,-2.7819e+05,0
-70910,-2.786e+05,0
-70548,-2.784e+05,0
-71188,-2.7827e+05,0
-70238,-2.776e+05,0
-70807,-2.7755e+05,0
-70260,-2.7729e+05,0
-70991,-2.7732e+05,0
-71145,-2.7725e+05,0
-71873,-2.7724e+05,0
-72416,-2.7704e+05,0
-71744,-2.7739e+05,0
-72739,-2.772e+05,0
-74312,-2.7712e+05,0
-73696,-2.7719e+05,0
-74844,-2.7704e+05,0
-75362,-2.7693e+05,0
-75072,-2.7645e+05,0
-75246,-2.7597e+05,0
-75036,-2.7603e+05,0
-75329,-2.7587e+05,0
-75324,-2.7675e+05,0
-75242,-2.7662e+05,0
-75203,-2.7661e+05,0
-74645,-2.7719e+05,0
-74571,-2.7646e+05,0
-74275,-2.7647e+05,0
-74104,-2.7723e+05,0
-73181,-2.7742e+05,0
-72336,-2.7722e+05,0
-72138,-2.7778e+05,0
-72269,-2.772e+05,0
-71292,-2.7738e+05,0
-71321,-2.7714e+05,0
-70823,-2.774e+05,0
-70211,-2.7775e+05,0
-69955,-2.7769e+05,0
-70205,-2.7756e+05,0
-69961,-2.7772e+05,0
-70235,-2.7768e+05,0
-70283,-2.7737e+05,0
-70748,-2.7687e+05,0
-71416,-2.7733e+05,0
-71789,-2.7752e+05,0
-72609,-2.771e+05,0
-73916,-2.7764e+05,0
-75140,-2.7695e+05,0
-75097,-2.7691e+05,0
-75755,-2.7675e+05,0
-76075,-2.7606e+05,0
-76552,-2.77e+05,0
-76099,-2.7723e+05,0
-75809,-2.7652e+05,0
-75046,-2.76e+05,0
-75114,-2.7622e+05,0
-74198,-2.7614e+05,0
-73673,-2.7644e+05,0
-73686,-2.7649e+05,0
-73836,-2.7661e+05,0
-72798,-2.7665e+05,0
-73225,-2.7634e+05,0
-71682,-2.7691e+05,0
-71480,-2.7652e+05,0
-71023,-2.7692e+05,0
-70676,-2.7657e+05,0
-69577,-2.7691e+05,0
-69696,-2.7764e+05,0
-70565,-2.77e+05,0
-69981,-2.7755e+05,0
-69693,-2.7788e+05,0
-70055,-2.7777e+05,0
-70481,-2.7789e+05,0
-70877,-2.7825e+05,0
-71674,-2.7804e+05,0
-72807,-2.7793e+05,0
-73715,-2.7815e+05,0
-75058,-2.7778e+05,0
-75274,-2.7791e+05,0
-76718,-2.7836e+05,0
-77257,-2.7767e+05,0
-77347,-2.7773e+05,0
-77864,-2.7834e+05,0
-78641,-2.7776e+05,0
-78456,-2.7747e+05,0
-78603,-2.774e+05,0
-78055,-2.7726e+05,0
-78335,-2.7729e+05,0
-78562,-2.7715e+05,0
-78133,-2.7781e+05,0
-77865,-2.7766e+05,0
-77603,-2.7767e+05,0
-76226,-2.7737e+05,0
-75862,-2.7729e+05,0
-75266,-2.7679e+05,0
-74819,-2.7715e+05,0
-73483,-2.7783e+05,0
-73570,-2.7746e+05,0
-72306,-2.7764e+05,0
-71764,-2.7757e+05,0
-70833,-2.7774e+05,0
-71702,-2.7808e+05,0
-70394,-2.7774e+05,0
-70758,-2.7829e+05,0
-70525,-2.7796e+05,0
-70605,-2.7803e+05,0
-70905,-2.7836e+05,0
-71392,-2.7834e+05,0
-72222,-2.7816e+05,0
-72532,-2.7837e+05,0
-73046,-2.7781e+05,0
-72810,-2.7755e+05,0
-73528,-2.7783e+05,0
-74047,-2.7733e+05,0
-74986,-2.7739e+05,0
-75421,-2.7719e+05,0
-76717,-2.7725e+05,0
-76464,-2.7691e+05,0
-76063,-2.7722e+05,0
-76694,-2.771e+05,0
-76658,-2.7652e+05,0
-76493,-2.7699e+05,0
-76516,-2.7673e+05,0
-75873,-2.7732e+05,0
-75001,-2.7726e+05,0
-74468,-2.7648e+05,0
-74358,-2.7721e+05,0
-74385,-2.7729e+05,0
-74277,-2.7798e+05,0
-72535,-2.7736e+05,0
-72247,-2.7762e+05,0
-71320,-2.7734e+05,0
-71060,-2.775e+05,0
-70318,-2.7758e+05,0
-70131,-2.7841e+05,0
-70632,-2.7824e+05,0
-69739,-2.7844e+05,0
-70065,-2.7857e+05,0
-69854,-2.7862e+05,0
-69907,-2.7817e+05,0
-70458,-2.7795e+05,0
-69861,-2.7768e+05,0
-70399,-2.7725e+05,0
-70787,-2.7722e+05,0
-70074,-2.7707e+05,0
-69744,-2.7737e+05,0
-70577,-2.7692e+05,0
-71584,-2.7683e+05,0
-72713,-2.7705e+05,0
-73865,-2.7673e+05,0
-74039,-2.7664e+05,0
-74345,-2.7642e+05,0
-75017,-2.7599e+05,0
-74266,-2.7562e+05,0
-74506,-2.7632e+05,0
-74787,-2.7596e+05,0
-74417,-2.7524e+05,0
-73673,-2.7607e+05,0
-73256,-2.749e+05,0
-72412,-2.7579e+05,0
-71911,-2.7561e+05,0
-71981,-2.7646e+05,0
-72138,-2.7564e+05,0
-70634,-2.7597e+05,0
-70069,-2.7606e+05,0
-69569,-2.7685e+05,0
-68541,-2.7627e+05,0
-68179,-2.7657e+05,0
-68863,-2.7691e+05,0
-68055,-2.7694e+05,0
-68284,-2.7696e+05,0
-67949,-2.7727e+05,0
-68577,-2.7706e+05,0
-69233,-2.7734e+05,0
-69591,-2.7784e+05,0
-70973,-2.7721e+05,0
-71288,-2.7757e+05,0
-71652,-2.7697e+05,0
-72581,-2.7792e+05,0
-71584,-2.7683e+05,26
-72713,-2.7705e+05,26
-73865,-2.7673e+05,26
-74039,-2.7664e+05,26
-74345,-2.7642e+05,26
-75017,-2.7599e+05,26
-74266,-2.7562e+05,26
-74506,-2.7632e+05,26
-74787,-2.7596e+05,26
-74417,-2.7524e+05,26
-73673,-2.7607e+05,26
-73256,-2.749e+05,26
-72412,-2.7579e+05,26
-71911,-2.7561e+05,26
-71981,-2.7646e+05,26
-72138,-2.7564e+05,26
-70634,-2.7597e+05,26
-70069,-2.7606e+05,26
-69569,-2.7685e+05,26
-68541,-2.7627e+05,26
-68179,-2.7657e+05,26
-68863,-2.7691e+05,26
-68055,-2.7694e+05,26
-68284,-2.7696e+05,26
-67949,-2.7727e+05,26
-68577,-2.7706e+05,26
-69233,-2.7734e+05,26
-69591,-2.7784e+05,26
-70973,-2.7721e+05,26
-71288,-2.7757e+05,26
-71652,-2.7697e+05,26
-72581,-2.7792e+05,26
-71584,-2.7683e+05,28.5
-72713,-2.7705e+05,28.5
-73865,-2.7673e+05,28.5
-74039,-2.7664e+05,28.5
-74345,-2.7642e+05,28.5
-75017,-2.7599e+05,28.5
-74266,-2.7562e+05,28.5
-74506,-2.7632e+05,28.5
-74787,-2.7596e+05,28.5
-74417,-2.7524e+05,28.5
-73673,-2.7607e+05,28.5
-73256,-2.749e+05,28.5
-72412,-2.7579e+05,28.5
-71911,-2.7561e+05,28.5
-71981,-2.7646e+05,28.5
-72138,-2.7564e+05,28.5
-70634,-2.7597e+05,28.5
-70069,-2.7606e+05,28.5
-69569,-2.7685e+05,28.5
-68541,-2.7627e+05,28.5
-68179,-2.7657e+05,28.5
-68863,-2.7691e+05,28.5
-68055,-2.7694e+05,28.5
-68284,-2.7696e+05,28.5
-67949,-2.7727e+05,28.5
-68577,-2.7706e+05,28.5
-69233,-2.7734e+05,28.5
-69591,-2.7784e+05,28.5
-70973,-2.7721e+05,28.5
-71288,-2.7757e+05,28.5
-71652,-2.7697e+05,28.5
-72581,-2.7792e+05,28.5
-71584,-2.7683e+05,31
-72713,-2.7705e+05,31
-73865,-2.7673e+05,31
-74039,-2.7664e+05,31
-74345,-2.7642e+05,31
-75017,-2.7599e+05,31
-74266,-2.7562e+05,31
-74506,-2.7632e+05,31
-74787,-2.7596e+05,31
-74417,-2.7524e+05,31
-73673,-2.7607e+05,31
-73256,-2.749e+05,31
-72412,-2.7579e+05,31
-71911,-2.7561e+05,31
-71981,-2.7646e+05,31
-72138,-2.7564e+05,31
-70634,-2.7597e+05,31
-70069,-2.7606e+05,31
-69569,-2.7685e+05,31
-68541,-2.7627e+05,31
-68179,-2.7657e+05,31
-68863,-2.7691e+05,31
-68055,-2.7694e+05,31
-68284,-2.7696e+05,31
-67949,-2.7727e+05,31
-68577,-2.7706e+05,31
-69233,-2.7734e+05,31
-69591,-2.7784e+05,31
-70973,-2.7721e+05,31
-71288,-2.7757e+05,31
-71652,-2.7697e+05,31
-72581,-2.7792e+05,31
-71584,-2.7683e+05,32
-72713,-2.7705e+05,32
-73865,-2.7673e+05,32
-74039,-2.7664e+05,32
-74345,-2.7642e+05,32
-75017,-2.7599e+05,32
-74266,-2.7562e+05,32
-74506,-2.7632e+05,32
-74787,-2.7596e+05,32
-74417,-2.7524e+05,32
-73673,-2.7607e+05,32
-73256,-2.749e+05,32
-72412,-2.7579e+05,32
-71911,-2.7561e+05,32
-71981,-2.7646e+05,32
-72138,-2.7564e+05,32
-70634,-2.7597e+05,32
-70069,-2.7606e+05,32
-69569,-2.7685e+05,32
-68541,-2.7627e+05,32
-68179,-2.7657e+05,32
-68863,-2.7691e+05,32
-68055,-2.7694e+05,32
-68284,-2.7696e+05,32
-67949,-2.7727e+05,32
-68577,-2.7706e+05,32
-69233,-2.7734e+05,32
-69591,-2.7784e+05,32
-70973,-2.7721e+05,32
-71288,-2.7757e+05,32
-71652,-2.7697e+05,32
-72581,-2.7792e+05,32
-74036,-2.7803e+05,32
-74558,-2.7771e+05,32
-75503,-2.7735e+05,32
-76150,-2.7743e+05,32
-77604,-2.7774e+05,32
-78118,-2.777e+05,32
-77801,-2.7745e+05,32
-77541,-2.7727e+05,32
-77723,-2.7714e+05,32
-76626,-2.7668e+05,32
-75946,-2.7727e+05,32
-75605,-2.7689e+05,32
-75466,-2.7706e+05,32
-74320,-2.7698e+05,32
-73526,-2.7622e+05,32
-72864,-2.7617e+05,32
-71784,-2.7616e+05,32
-70749,-2.7671e+05,32
-69485,-2.762e+05,32
-68795,-2.7701e+05,32
-68355,-2.7719e+05,32
-67497,-2.7681e+05,32
-66868,-2.7671e+05,32
-66736,-2.7754e+05,32
-66624,-2.7711e+05,32
-66979,-2.7682e+05,32
-66939,-2.7696e+05,32
-67010,-2.7713e+05,32
-67758,-2.7729e+05,32
-68289,-2.7737e+05,32
-68812,-2.7721e+05,32
-70284,-2.772e+05,32
-74036,-2.7803e+05,33
-74558,-2.7771e+05,33
-75503,-2.7735e+05,33
-76150,-2.7743e+05,33
-77604,-2.7774e+05,33
-78118,-2.777e+05,33
-77801,-2.7745e+05,33
-77541,-2.7727e+05,33
-77723,-2.7714e+05,33
-76626,-2.7668e+05,33
-75946,-2.7727e+05,33
-75605,-2.7689e+05,33
-75466,-2.7706e+05,33
-74320,-2.7698e+05,33
-73526,-2.7622e+05,33
-72864,-2.7617e+05,33
-71784,-2.7616e+05,33
-70749,-2.7671e+05,33
-69485,-2.762e+05,33
-68795,-2.7701e+05,33
-68355,-2.7719e+05,33
-67497,-2.7681e+05,33
-66868,-2.7671e+05,33
-66736,-2.7754e+05,33
-66624,-2.7711e+05,33
-66979,-2.7682e+05,33
-66939,-2.7696e+05,33
-67010,-2.7713e+05,33
-67758,-2.7729e+05,33
-68289,-2.7737e+05,33
-68812,-2.7721e+05,33
-70284,-2.772e+05,33
-71710,-2.7711e+05,33
-71860,-2.778e+05,33
-73734,-2.7645e+05,33
-75162,-2.7733e+05,33
-75641,-2.7695e+05,33
-77029,-2.7656e+05,33
-77031,-2.7692e+05,33
-76945,-2.7668e+05,33
-77228,-2.7694e+05,33
-77344,-2.7671e+05,33
-77682,-2.7752e+05,33
-78623,-2.7747e+05,33
-78473,-2.7779e+05,33
-78099,-2.7762e+05,33
-77046,-2.7817e+05,33
-76155,-2.7791e+05,33
-76098,-2.7765e+05,33
-74705,-2.7736e+05,33
-73099,-2.7741e+05,33
-72318,-2.7756e+05,33
-71417,-2.7747e+05,33
-71526,-2.778e+05,33
-70616,-2.7789e+05,33
-70488,-2.7816e+05,33
-70437,-2.7786e+05,33
-70483,-2.7787e+05,33
-69782,-2.7783e+05,33
-70415,-2.7804e+05,33
-69117,-2.7754e+05,33
-69696,-2.7751e+05,33
-70170,-2.7767e+05,33
-70639,-2.7793e+05,33
-71173,-2.7738e+05,33
-72010,-2.773e+05,33
-73384,-2.7754e+05,33
-73743,-2.7759e+05,33
-75034,-2.7675e+05,33
-75650,-2.7632e+05,33
-75597,-2.7669e+05,33
-75356,-2.7618e+05,33
-75497,-2.7598e+05,33
-75925,-2.7611e+05,33
-75307,-2.7628e+05,33
-75876,-2.7667e+05,33
-75224,-2.767e+05,33
-75040,-2.7708e+05,33
-75093,-2.767e+05,33
-75217,-2.7611e+05,33
-73730,-2.7627e+05,33
-73113,-2.7656e+05,33
-73202,-2.7648e+05,33
-72312,-2.7631e+05,33
-70693,-2.7641e+05,33
-69952,-2.7652e+05,33
-69827,-2.7666e+05,33
-69257,-2.7731e+05,33
-69932,-2.773e+05,33
-69290,-2.7757e+05,33
-69773,-2.7739e+05,33
-69538,-2.7765e+05,33
-69539,-2.7704e+05,33
-70093,-2.7726e+05,33
-70453,-2.7723e+05,33
-70997,-2.7729e+05,33
-71173,-2.7738e+05,34
-72010,-2.773e+05,34
-73384,-2.7754e+05,34
-73743,-2.7759e+05,34
-75034,-2.7675e+05,34
-75650,-2.7632e+05,34
-75597,-2.7669e+05,34
-75356,-2.7618e+05,34
-75497,-2.7598e+05,34
-75925,-2.7611e+05,34
-75307,-2.7628e+05,34
-75876,-2.7667e+05,34
-75224,-2.767e+05,34
-75040,-2.7708e+05,34
-75093,-2.767e+05,34
-75217,-2.7611e+05,34
-73730,-2.7627e+05,34
-73113,-2.7656e+05,34
-73202,-2.7648e+05,34
-72312,-2.7631e+05,34
-70693,-2.7641e+05,34
-69952,-2.7652e+05,34
-69827,-2.7666e+05,34
-69257,-2.7731e+05,34
-69932,-2.773e+05,34
-69290,-2.7757e+05,34
-69773,-2.7739e+05,34
-69538,-2.7765e+05,34
-69539,-2.7704e+05,34
-70093,-2.7726e+05,34
-70453,-2.7723e+05,34
-70997,-2.7729e+05,34
-71950,-2.7782e+05,34
-72256,-2.7715e+05,34
-72444,-2.7705e+05,34
-73097,-2.771e+05,34
-74660,-2.7751e+05,34
-75720,-2.7743e+05,34
-76253,-2.7668e+05,34
-76445,-2.7723e+05,34
-76822,-2.7668e+05,34
-76186,-2.7664e+05,34
-75754,-2.7684e+05,34
-75642,-2.7692e+05,34
-75666,-2.7673e+05,34
-75898,-2.7697e+05,34
-75884,-2.7736e+05,34
-75380,-2.7695e+05,34
-74521,-2.7711e+05,34
-74113,-2.7742e+05,34
-72580,-2.7783e+05,34
-72015,-2.7751e+05,34
-72106,-2.7767e+05,34
-70829,-2.7723e+05,34
-69656,-2.7738e+05,34
-68870,-2.7791e+05,34
-67852,-2.7698e+05,34
-66595,-2.7727e+05,34
-65737,-2.7723e+05,34
-64741,-2.7681e+05,34
-64667,-2.7652e+05,34
-64644,-2.7664e+05,34
-64593,-2.7645e+05,34
-64391,-2.7641e+05,34
-64528,-2.7688e+05,34
-65804,-2.7706e+05,34
-66246,-2.774e+05,34
-67797,-2.7747e+05,34
-68761,-2.7769e+05,34
-69723,-2.7736e+05,34
-70740,-2.7698e+05,34
-72205,-2.7757e+05,34
-73102,-2.7725e+05,34
-74955,-2.7729e+05,34
-75279,-2.7728e+05,34
-75652,-2.7736e+05,34
-76764,-2.7747e+05,34
-76991,-2.7724e+05,34
-76777,-2.7792e+05,34
-77743,-2.771e+05,34
-77103,-2.7681e+05,34
-77029,-2.7739e+05,34
-76171,-2.7786e+05,34
-75211,-2.7796e+05,34
-75058,-2.7727e+05,34
-74985,-2.7786e+05,34
-73128,-2.7747e+05,34
-72115,-2.7785e+05,34
-71820,-2.7825e+05,34
-70482,-2.7861e+05,34
-68945,-2.7803e+05,34
-68918,-2.7811e+05,34
-68690,-2.7826e+05,34
-68008,-2.7823e+05,34
-67575,-2.785e+05,34
-67754,-2.7774e+05,34
-64528,-2.7688e+05,35
-65804,-2.7706e+05,35
-66246,-2.774e+05,35
-67797,-2.7747e+05,35
-68761,-2.7769e+05,35
-69723,-2.7736e+05,35
-70740,-2.7698e+05,35
-72205,-2.7757e+05,35
-73102,-2.7725e+05,35
-74955,-2.7729e+05,35
-75279,-2.7728e+05,35
-75652,-2.7736e+05,35
-76764,-2.7747e+05,35
-76991,-2.7724e+05,35
-76777,-2.7792e+05,35
-77743,-2.771e+05,35
-77103,-2.7681e+05,35
-77029,-2.7739e+05,35
-76171,-2.7786e+05,35
-75211,-2.7796e+05,35
-75058,-2.7727e+05,35
-74985,-2.7786e+05,35
-73128,-2.7747e+05,35
-72115,-2.7785e+05,35
-71820,-2.7825e+05,35
-70482,-2.7861e+05,35
-68945,-2.7803e+05,35
-68918,-2.7811e+05,35
-68690,-2.7826e+05,35
-68008,-2.7823e+05,35
-67575,-2.785e+05,35
-67754,-2.7774e+05,35
-68401,-2.7786e+05,35
-68110,-2.7835e+05,35
-68355,-2.777e+05,35
-68438,-2.774e+05,35
-68960,-2.7763e+05,35
-69366,-2.7721e+05,35
-70502,-2.7681e+05,35
-71109,-2.7666e+05,35
-72425,-2.7673e+05,35
-73285,-2.7672e+05,35
-74390,-2.7702e+05,35
-75647,-2.7684e+05,35
-76505,-2.7643e+05,35
-76225,-2.764e+05,35
-76701,-2.7643e+05,35
-77071,-2.769e+05,35
-76579,-2.765e+05,35
-76722,-2.7681e+05,35
-76660,-2.7621e+05,35
-75802,-2.7639e+05,35
-75541,-2.7656e+05,35
-75397,-2.7727e+05,35
-75240,-2.7758e+05,35
-75123,-2.7784e+05,35
-73838,-2.7765e+05,35
-72980,-2.7811e+05,35
-72023,-2.7859e+05,35
-71054,-2.7845e+05,35
-70359,-2.7849e+05,35
-70657,-2.7821e+05,35
-69994,-2.7777e+05,35
-69645,-2.7793e+05,35
-68150,-2.7781e+05,35
-68259,-2.776e+05,35
-68135,-2.7768e+05,35
-68174,-2.7784e+05,35
-68887,-2.7764e+05,35
-69317,-2.7775e+05,35
-70146,-2.7791e+05,35
-70122,-2.7725e+05,35
-71334,-2.7753e+05,35
-71965,-2.7684e+05,35
-73038,-2.7727e+05,35
-72492,-2.7711e+05,35
-73386,-2.7644e+05,35
-73839,-2.7679e+05,35
-73353,-2.7709e+05,35
-73603,-2.7713e+05,35
-73212,-2.7673e+05,35
-71833,-2.7668e+05,35
-71125,-2.7668e+05,35
-70485,-2.7685e+05,35
-70224,-2.7649e+05,35
-69405,-2.765e+05,35
-69681,-2.769e+05,35
-69855,-2.7639e+05,35
-69493,-2.7669e+05,35
-68643,-2.7703e+05,35
-68416,-2.772e+05,35
-68332,-2.7667e+05,35
-67787,-2.7713e+05,35
-68497,-2.7772e+05,35
-68375,-2.7788e+05,35
-68504,-2.7779e+05,35
-68150,-2.7781e+05,36
-68259,-2.776e+05,36
-68135,-2.7768e+05,36
-68174,-2.7784e+05,36
-68887,-2.7764e+05,36
-69317,-2.7775e+05,36
-70146,-2.7791e+05,36
-70122,-2.7725e+05,36
-71334,-2.7753e+05,36
-71965,-2.7684e+05,36
-73038,-2.7727e+05,36
-72492,-2.7711e+05,36
-73386,-2.7644e+05,36
-73839,-2.7679e+05,36
-73353,-2.7709e+05,36
-73603,-2.7713e+05,36
-73212,-2.7673e+05,36
-71833,-2.7668e+05,36
-71125,-2.7668e+05,36
-70485,-2.7685e+05,36
-70224,-2.7649e+05,36
-69405,-2.765e+05,36
-69681,-2.769e+05,36
-69855,-2.7639e+05,36
-69493,-2.7669e+05,36
-68643,-2.7703e+05,36
-68416,-2.772e+05,36
-68332,-2.7667e+05,36
-67787,-2.7713e+05,36
-68497,-2.7772e+05,36
-68375,-2.7788e+05,36
-68504,-2.7779e+05,36
-68096,-2.771e+05,36
-68564,-2.7726e+05,36
-68463,-2.7749e+05,36
-68424,-2.7765e+05,36
-69227,-2.774e+05,36
-69546,-2.7797e+05,36
-70010,-2.7738e+05,36
-71037,-2.7823e+05,36
-71531,-2.7747e+05,36
-71507,-2.7756e+05,36
-72466,-2.7789e+05,36
-73513,-2.7723e+05,36
-73668,-2.774e+05,36
-74931,-2.7747e+05,36
-75196,-2.7704e+05,36
-75578,-2.771e+05,36
-76079,-2.7751e+05,36
-76134,-2.7738e+05,36
-76227,-2.7723e+05,36
-75850,-2.7756e+05,36
-75601,-2.7804e+05,36
-75911,-2.7753e+05,36
-76062,-2.7785e+05,36
-75338,-2.7806e+05,36
-74491,-2.7813e+05,36
-73416,-2.7772e+05,36
-71357,-2.7695e+05,36
-71115,-2.7772e+05,36
-68988,-2.7702e+05,36
-68266,-2.7667e+05,36
-67152,-2.7744e+05,36
-67402,-2.7743e+05,36
-67644,-2.775e+05,36
-67561,-2.7774e+05,36
-67462,-2.777e+05,36
-67460,-2.7794e+05,36
-67877,-2.783e+05,36
-68096,-2.7709e+05,36
-68379,-2.7767e+05,36
-69768,-2.7745e+05,36
-70665,-2.7744e+05,36
-71040,-2.7754e+05,36
-71273,-2.7745e+05,36
-72605,-2.7689e+05,36
-73345,-2.7645e+05,36
-73092,-2.7647e+05,36
-73077,-2.7644e+05,36
-73175,-2.7629e+05,36
-73722,-2.7627e+05,36
-73323,-2.7587e+05,36
-73401,-2.7634e+05,36
-74368,-2.7609e+05,36
-73925,-2.7617e+05,36
-73775,-2.762e+05,36
-73749,-2.7666e+05,36
-73019,-2.7634e+05,36
-71946,-2.7676e+05,36
-71540,-2.7626e+05,36
-70717,-2.7721e+05,36
-70562,-2.7651e+05,36
-68966,-2.7686e+05,36
-68850,-2.7712e+05,36
-67815,-2.7729e+05,36
-67331,-2.7716e+05,36
-66318,-2.7695e+05,36
-66769,-2.7726e+05,36
-66663,-2.7766e+05,36
-66856,-2.7793e+05,36
-67013,-2.776e+05,36
-67416,-2.7702e+05,36
-68155,-2.7753e+05,36
-67792,-2.7829e+05,36
-68718,-2.7751e+05,36
-69403,-2.771e+05,36
-69835,-2.7714e+05,36
-70764,-2.7679e+05,36
-72204,-2.7687e+05,36
-73356,-2.7738e+05,36
-73974,-2.7663e+05,36
-74703,-2.7709e+05,36
-76226,-2.7727e+05,36
-76411,-2.7668e+05,36
-76546,-2.7739e+05,36
-76932,-2.7636e+05,36
-76525,-2.7714e+05,36
-76326,-2.7663e+05,36
-77018,-2.7669e+05,36
-76204,-2.7629e+05,36
-75261,-2.7715e+05,36
-74815,-2.7728e+05,36
-73715,-2.7709e+05,36
-73921,-2.7756e+05,36
-73597,-2.7713e+05,36
-72044,-2.7745e+05,36
-70567,-2.7732e+05,36
-69570,-2.7772e+05,36
-66318,-2.7695e+05,37
-66769,-2.7726e+05,37
-66663,-2.7766e+05,37
-66856,-2.7793e+05,37
-67013,-2.776e+05,37
-67416,-2.7702e+05,37
-68155,-2.7753e+05,37
-67792,-2.7829e+05,37
-68718,-2.7751e+05,37
-69403,-2.771e+05,37
-69835,-2.7714e+05,37
-70764,-2.7679e+05,37
-72204,-2.7687e+05,37
-73356,-2.7738e+05,37
-73974,-2.7663e+05,37
-74703,-2.7709e+05,37
-76226,-2.7727e+05,37
-76411,-2.7668e+05,37
-76546,-2.7739e+05,37
-76932,-2.7636e+05,37
-76525,-2.7714e+05,37
-76326,-2.7663e+05,37
-77018,-2.7669e+05,37
-76204,-2.7629e+05,37
-75261,-2.7715e+05,37
-74815,-2.7728e+05,37
-73715,-2.7709e+05,37
-73921,-2.7756e+05,37
-73597,-2.7713e+05,37
-72044,-2.7745e+05,37
-70567,-2.7732e+05,37
-69570,-2.7772e+05,37
-69171,-2.7764e+05,37
-67740,-2.7711e+05,37
-66356,-2.7734e+05,37
-65992,-2.7681e+05,37
-64739,-2.7733e+05,37
-64850,-2.7715e+05,37
-65530,-2.7681e+05,37
-65057,-2.7716e+05,37
-65245,-2.7691e+05,37
-66046,-2.7719e+05,37
-65954,-2.7741e+05,37
-66946,-2.7729e+05,37
-67736,-2.773e+05,37
-68190,-2.7664e+05,37
-68893,-2.7607e+05,37
-69968,-2.7576e+05,37
-70124,-2.7607e+05,37
-70604,-2.7584e+05,37
-70865,-2.7556e+05,37
-71256,-2.7523e+05,37
-71380,-2.7535e+05,37
-72108,-2.7584e+05,37
-72240,-2.7575e+05,37
-72666,-2.7574e+05,37
-73049,-2.756e+05,37
-73187,-2.7563e+05,37
-73061,-2.7605e+05,37
-72240,-2.7602e+05,37
-72733,-2.7625e+05,37
-73266,-2.7686e+05,37
-72374,-2.7663e+05,37
-72039,-2.7733e+05,37
-71264,-2.7749e+05,37
-70223,-2.7738e+05,37
-69591,-2.7731e+05,37
-68987,-2.7766e+05,37
-69294,-2.7793e+05,37
-68757,-2.7779e+05,37
-69209,-2.7772e+05,37
-69597,-2.7794e+05,37
-69374,-2.7807e+05,37
-69332,-2.7831e+05,37
-69873,-2.7769e+05,37
-69243,-2.7764e+05,37
-70695,-2.7751e+05,37
-71084,-2.7732e+05,37
-71671,-2.7706e+05,37
-72547,-2.7713e+05,37
-73068,-2.761e+05,37
-73979,-2.7681e+05,37
-73880,-2.7729e+05,37
-75097,-2.764e+05,37
-74659,-2.7663e+05,37
-74570,-2.7654e+05,37
-74661,-2.7622e+05,37
-75277,-2.7678e+05,37
-74910,-2.7634e+05,37
-74684,-2.7662e+05,37
-74759,-2.7674e+05,37
-74041,-2.7641e+05,37
-73368,-2.7661e+05,37
-72739,-2.7658e+05,37
-71588,-2.7682e+05,37
-71050,-2.7625e+05,37
-71264,-2.7749e+05,38
-70223,-2.7738e+05,38
-69591,-2.7731e+05,38
-68987,-2.7766e+05,38
-69294,-2.7793e+05,38
-68757,-2.7779e+05,38
-69209,-2.7772e+05,38
-69597,-2.7794e+05,38
-69374,-2.7807e+05,38
-69332,-2.7831e+05,38
-69873,-2.7769e+05,38
-69243,-2.7764e+05,38
-70695,-2.7751e+05,38
-71084,-2.7732e+05,38
-71671,-2.7706e+05,38
-72547,-2.7713e+05,38
-73068,-2.761e+05,38
-73979,-2.7681e+05,38
-73880,-2.7729e+05,38
-75097,-2.764e+05,38
-74659,-2.7663e+05,38
-74570,-2.7654e+05,38
-74661,-2.7622e+05,38
-75277,-2.7678e+05,38
-74910,-2.7634e+05,38
-74684,-2.7662e+05,38
-74759,-2.7674e+05,38
-74041,-2.7641e+05,38
-73368,-2.7661e+05,38
-72739,-2.7658e+05,38
-71588,-2.7682e+05,38
-71050,-2.7625e+05,38
-69700,-2.7628e+05,38
-68833,-2.7744e+05,38
-67753,-2.772e+05,38
-67294,-2.768e+05,38
-66243,-2.7682e+05,38
-65584,-2.7675e+05,38
-64710,-2.7708e+05,38
-64681,-2.7717e+05,38
-64791,-2.7732e+05,38
-65019,-2.7705e+05,38
-65558,-2.7731e+05,38
-66245,-2.7696e+05,38
-67407,-2.7696e+05,38
-68298,-2.7723e+05,38
-69183,-2.7687e+05,38
-69649,-2.7705e+05,38
-70763,-2.7661e+05,38
-71658,-2.7677e+05,38
-72911,-2.7549e+05,38
-73258,-2.7645e+05,38
-74401,-2.7656e+05,38
-75057,-2.7647e+05,38
-74433,-2.7634e+05,38
-74984,-2.7661e+05,38
-75919,-2.7652e+05,38
-75897,-2.76e+05,38
-75697,-2.7638e+05,38
-75775,-2.7644e+05,38
-75019,-2.7649e+05,38
-73617,-2.7632e+05,38
-72355,-2.7634e+05,38
-71426,-2.7662e+05,38
-71588,-2.769e+05,38
-69968,-2.7719e+05,38
-69450,-2.7705e+05,38
-68537,-2.7669e+05,38
-67887,-2.7666e+05,38
-66855,-2.7761e+05,38
-67007,-2.7793e+05,38
-66645,-2.7739e+05,38
-66751,-2.7736e+05,38
-65885,-2.7728e+05,38
-65673,-2.7727e+05,38
-65990,-2.7679e+05,38
-66673,-2.7707e+05,38
-66738,-2.7707e+05,38
-67311,-2.7678e+05,38
-68463,-2.7733e+05,38
-69333,-2.7644e+05,38
-69247,-2.7715e+05,38
-70292,-2.7696e+05,38
-71377,-2.7693e+05,38
-71630,-2.7648e+05,38
-72626,-2.7667e+05,38
-73004,-2.763e+05,38
-73624,-2.7678e+05,38
-74344,-2.7626e+05,38
-74525,-2.7688e+05,38
-74477,-2.7671e+05,38
-74381,-2.768e+05,38
-73706,-2.7732e+05,38
-74035,-2.7662e+05,38
-73052,-2.7634e+05,38
-71290,-2.7639e+05,38
-71588,-2.769e+05,39
-69968,-2.7719e+05,39
-69450,-2.7705e+05,39
-68537,-2.7669e+05,39
-67887,-2.7666e+05,39
-66855,-2.7761e+05,39
-67007,-2.7793e+05,39
-66645,-2.7739e+05,39
-66751,-2.7736e+05,39
-65885,-2.7728e+05,39
-65673,-2.7727e+05,39
-65990,-2.7679e+05,39
-66673,-2.7707e+05,39
-66738,-2.7707e+05,39
-67311,-2.7678e+05,39
-68463,-2.7733e+05,39
-69333,-2.7644e+05,39
-69247,-2.7715e+05,39
-70292,-2.7696e+05,39
-71377,-2.7693e+05,39
-71630,-2.7648e+05,39
-72626,-2.7667e+05,39
-73004,-2.763e+05,39
-73624,-2.7678e+05,39
-74344,-2.7626e+05,39
-74525,-2.7688e+05,39
-74477,-2.7671e+05,39
-74381,-2.768e+05,39
-73706,-2.7732e+05,39
-74035,-2.7662e+05,39
-73052,-2.7634e+05,39
-71290,-2.7639e+05,39
-70144,-2.7573e+05,39
-68933,-2.7561e+05,39
-68793,-2.7622e+05,39
-67354,-2.7619e+05,39
-66224,-2.7645e+05,39
-65598,-2.7616e+05,39
-63584,-2.7638e+05,39
-64215,-2.7619e+05,39
-64277,-2.7674e+05,39
-64253,-2.7725e+05,39
-64659,-2.7686e+05,39
-64278,-2.7634e+05,39
-64291,-2.7626e+05,39
-65036,-2.7635e+05,39
-66514,-2.7683e+05,39
-68136,-2.7696e+05,39
-68871,-2.7681e+05,39
-69223,-2.7645e+05,39
-69836,-2.7645e+05,39
-71685,-2.77e+05,39
-72454,-2.7665e+05,39
-73591,-2.7684e+05,39
-73746,-2.7614e+05,39
-75436,-2.7691e+05,39
-75714,-2.7701e+05,39
-75306,-2.7698e+05,39
-75677,-2.7682e+05,39
-75249,-2.7713e+05,39
-74322,-2.7659e+05,39
-74935,-2.7697e+05,39
-74402,-2.7684e+05,39
-72724,-2.7702e+05,39
-72614,-2.7594e+05,39
-71606,-2.7662e+05,39
-71014,-2.7693e+05,39
-71518,-2.7725e+05,39
-69854,-2.7718e+05,39
-69072,-2.7731e+05,39
-67941,-2.7726e+05,39
-66825,-2.7779e+05,39
-65850,-2.7827e+05,39
-65704,-2.7776e+05,39
-65863,-2.7746e+05,39
-65547,-2.7769e+05,39
-65496,-2.7788e+05,39
-66419,-2.778e+05,39
-65967,-2.7775e+05,39
-66941,-2.7751e+05,39
-68181,-2.773e+05,39
-68390,-2.7755e+05,39
-69840,-2.7733e+05,39
-70231,-2.7756e+05,39
-71092,-2.7665e+05,39
-72644,-2.765e+05,39
-73662,-2.7655e+05,39
-74818,-2.7688e+05,39
-76293,-2.7627e+05,39
-76480,-2.7684e+05,39
-76889,-2.7648e+05,39
-77864,-2.7684e+05,39
-76892,-2.7598e+05,39
-77260,-2.7673e+05,39
-76168,-2.7696e+05,39
-75717,-2.7676e+05,39
-75321,-2.7711e+05,39
-74263,-2.7643e+05,39
-73242,-2.7646e+05,39
-72223,-2.7613e+05,39
-71509,-2.7682e+05,39
-69964,-2.7638e+05,39
-69260,-2.7728e+05,39
-67720,-2.7688e+05,39
-67102,-2.7681e+05,39
-65806,-2.7682e+05,39
-65354,-2.7742e+05,39
-65574,-2.77e+05,39
-65395,-2.7745e+05,39
-65251,-2.7786e+05,39
-65657,-2.767e+05,39
-66795,-2.7681e+05,39
-66482,-2.7708e+05,39
-66994,-2.7713e+05,39
-68293,-2.7724e+05,39
-68775,-2.7659e+05,39
-69218,-2.7665e+05,39
-68932,-2.7651e+05,39
-70601,-2.7642e+05,39
-71650,-2.7638e+05,39
-72302,-2.7606e+05,39
-73466,-2.7607e+05,39
-74045,-2.7586e+05,39
-74651,-2.7543e+05,39
-74853,-2.7668e+05,39
-74750,-2.7671e+05,39
-74734,-2.767e+05,39
-75072,-2.7641e+05,39
-74908,-2.7656e+05,39
-74537,-2.766e+05,39
-72951,-2.7617e+05,39
-73154,-2.7678e+05,39
-71654,-2.7686e+05,39
-70843,-2.7696e+05,39
-70557,-2.7683e+05,39
-69535,-2.7737e+05,39
-68792,-2.773e+05,39
-67600,-2.7777e+05,39
-66240,-2.7772e+05,39
-65836,-2.775e+05,39
-65152,-2.7732e+05,39
-64737,-2.7765e+05,39
-64959,-2.7729e+05,39
-63518,-2.7691e+05,39
-64064,-2.761e+05,39
-63842,-2.7597e+05,39
-64448,-2.7645e+05,39
-66189,-2.7699e+05,39
-66826,-2.7679e+05,39
-67867,-2.7696e+05,39
-68134,-2.7592e+05,39
-69515,-2.7629e+05,39
-69984,-2.7618e+05,39
-71598,-2.7643e+05,39
-71436,-2.761e+05,39
-72570,-2.7557e+05,39
-72276,-2.7598e+05,39
-72360,-2.7601e+05,39
-73196,-2.757e+05,39
-73764,-2.7585e+05,39
-73971,-2.7593e+05,39
-73871,-2.7676e+05,39
-73400,-2.7643e+05,39
-73235,-2.7639e+05,39
-72736,-2.7669e+05,39
-71592,-2.7639e+05,39
-71416,-2.7655e+05,39
-71105,-2.7678e+05,39
-69471,-2.7703e+05,39
-69149,-2.7705e+05,39
-68509,-2.7773e+05,39
-67185,-2.7751e+05,39
-66893,-2.7743e+05,39
-66007,-2.7737e+05,39
-65396,-2.7767e+05,39
-65210,-2.7725e+05,39
-65350,-2.7731e+05,39
-65294,-2.77e+05,39
-64976,-2.7627e+05,39
-65571,-2.769e+05,39
-66594,-2.7672e+05,39
-67394,-2.7726e+05,39
-68537,-2.7663e+05,39
-69189,-2.7703e+05,39
-69867,-2.7647e+05,39
-71017,-2.7591e+05,39
-71384,-2.763e+05,39
-71865,-2.7612e+05,39
-73632,-2.7607e+05,39
-73493,-2.7609e+05,39
-73785,-2.758e+05,39
-73008,-2.7623e+05,39
-72623,-2.758e+05,39
-72300,-2.7555e+05,39
-72354,-2.7593e+05,39
-72345,-2.7655e+05,39
-71399,-2.7676e+05,39
-71656,-2.7636e+05,39
-71149,-2.7615e+05,39
-69660,-2.7669e+05,39
-69807,-2.7639e+05,39
-68461,-2.7678e+05,39
-67888,-2.7693e+05,39
-67345,-2.7666e+05,39
-67824,-2.7664e+05,39
-66578,-2.7667e+05,39
-66268,-2.7724e+05,39
-67514,-2.7736e+05,39
-66835,-2.7713e+05,39
-66655,-2.7706e+05,39
-67585,-2.7696e+05,39
-67538,-2.7707e+05,39
-68197,-2.7718e+05,39
-68344,-2.7645e+05,39
-69944,-2.7639e+05,39
-70345,-2.7714e+05,39
-71118,-2.7649e+05,39
-71983,-2.7677e+05,39
-72589,-2.7692e+05,39
-73228,-2.767e+05,39
-74155,-2.7682e+05,39
-74310,-2.7613e+05,39
-74631,-2.7602e+05,39
-74518,-2.7605e+05,39
-72623,-2.758e+05,41
-72300,-2.7555e+05,41
-72354,-2.7593e+05,41
-72345,-2.7655e+05,41
-71399,-2.7676e+05,41
-71656,-2.7636e+05,41
-71149,-2.7615e+05,41
-69660,-2.7669e+05,41
-69807,-2.7639e+05,41
-68461,-2.7678e+05,41
-67888,-2.7693e+05,41
-67345,-2.7666e+05,41
-67824,-2.7664e+05,41
-66578,-2.7667e+05,41
-66268,-2.7724e+05,41
-67514,-2.7736e+05,41
-66835,-2.7713e+05,41
-66655,-2.7706e+05,41
-67585,-2.7696e+05,41
-67538,-2.7707e+05,41
-68197,-2.7718e+05,41
-68344,-2.7645e+05,41
-69944,-2.7639e+05,41
-70345,-2.7714e+05,41
-71118,-2.7649e+05,41
-71983,-2.7677e+05,41
-72589,-2.7692e+05,41
-73228,-2.767e+05,41
-74155,-2.7682e+05,41
-74310,-2.7613e+05,41
-74631,-2.7602e+05,41
-74518,-2.7605e+05,41
-72623,-2.758e+05,42.5
-72300,-2.7555e+05,42.5
-72354,-2.7593e+05,42.5
-72345,-2.7655e+05,42.5
-71399,-2.7676e+05,42.5
-71656,-2.7636e+05,42.5
-71149,-2.7615e+05,42.5
-69660,-2.7669e+05,42.5
-69807,-2.7639e+05,42.5
-68461,-2.7678e+05,42.5
-67888,-2.7693e+05,42.5
-67345,-2.7666e+05,42.5
-67824,-2.7664e+05,42.5
-66578,-2.7667e+05,42.5
-66268,-2.7724e+05,42.5
-67514,-2.7736e+05,42.5
-66835,-2.7713e+05,42.5
-66655,-2.7706e+05,42.5
-67585,-2.7696e+05,42.5
-67538,-2.7707e+05,42.5
-68197,-2.7718e+05,42.5
-68344,-2.7645e+05,42.5
-69944,-2.7639e+05,42.5
-70345,-2.7714e+05,42.5
-71118,-2.7649e+05,42.5
-71983,-2.7677e+05,42.5
-72589,-2.7692e+05,42.5
-73228,-2.767e+05,42.5
-74155,-2.7682e+05,42.5
-74310,-2.7613e+05,42.5
-74631,-2.7602e+05,42.5
-74518,-2.7605e+05,42.5
-74839,-2.7599e+05,42.5
-74425,-2.7564e+05,42.5
-74328,-2.7499e+05,42.5
-73853,-2.758e+05,42.5
-72935,-2.7552e+05,42.5
-73095,-2.7583e+05,42.5
-72268,-2.7566e+05,42.5
-72128,-2.7607e+05,42.5
-70345,-2.7617e+05,42.5
-70035,-2.7613e+05,42.5
-69223,-2.7612e+05,42.5
-68442,-2.7646e+05,42.5
-67601,-2.7663e+05,42.5
-67194,-2.7709e+05,42.5
-66604,-2.7679e+05,42.5
-66691,-2.7762e+05,42.5
-66034,-2.7715e+05,42.5
-65526,-2.7678e+05,42.5
-65478,-2.774e+05,42.5
-66123,-2.7704e+05,42.5
-66279,-2.7728e+05,42.5
-66920,-2.7738e+05,42.5
-67647,-2.7761e+05,42.5
-68343,-2.7725e+05,42.5
-68387,-2.7669e+05,42.5
-68953,-2.7653e+05,42.5
-68634,-2.7606e+05,42.5
-70185,-2.7598e+05,42.5
-70923,-2.7532e+05,42.5
-71915,-2.7513e+05,42.5
-72326,-2.7534e+05,42.5
-73114,-2.7544e+05,42.5
-73541,-2.7521e+05,42.5
-73264,-2.7585e+05,42.5
-74122,-2.7501e+05,42.5
-74607,-2.7517e+05,42.5
-74237,-2.7546e+05,42.5
-73491,-2.749e+05,42.5
-72752,-2.7509e+05,42.5
-71599,-2.7535e+05,42.5
-70918,-2.7663e+05,42.5
-70525,-2.7579e+05,42.5
-70142,-2.7592e+05,42.5
-69368,-2.7641e+05,42.5
-67576,-2.7592e+05,42.5
-66248,-2.7609e+05,42.5
-65020,-2.7621e+05,42.5
-64145,-2.7558e+05,42.5
-62428,-2.7568e+05,42.5
-61881,-2.7625e+05,42.5
-61595,-2.7668e+05,42.5
-61512,-2.7661e+05,42.5
-62045,-2.7653e+05,42.5
-62690,-2.7655e+05,42.5
-62962,-2.7695e+05,42.5
-63411,-2.7632e+05,42.5
-64625,-2.7608e+05,42.5
-65461,-2.7595e+05,42.5
-66143,-2.7551e+05,42.5
-67235,-2.7608e+05,42.5
-68146,-2.7629e+05,42.5
-70037,-2.7576e+05,42.5
-71448,-2.7573e+05,42.5
-73008,-2.7643e+05,42.5
-73541,-2.7521e+05,44
-73264,-2.7585e+05,44
-74122,-2.7501e+05,44
-74607,-2.7517e+05,44
-74237,-2.7546e+05,44
-73491,-2.749e+05,44
-72752,-2.7509e+05,44
-71599,-2.7535e+05,44
-70918,-2.7663e+05,44
-70525,-2.7579e+05,44
-70142,-2.7592e+05,44
-69368,-2.7641e+05,44
-67576,-2.7592e+05,44
-66248,-2.7609e+05,44
-65020,-2.7621e+05,44
-64145,-2.7558e+05,44
-62428,-2.7568e+05,44
-61881,-2.7625e+05,44
-61595,-2.7668e+05,44
-61512,-2.7661e+05,44
-62045,-2.7653e+05,44
-62690,-2.7655e+05,44
-62962,-2.7695e+05,44
-63411,-2.7632e+05,44
-64625,-2.7608e+05,44
-65461,-2.7595e+05,44
-66143,-2.7551e+05,44
-67235,-2.7608e+05,44
-68146,-2.7629e+05,44
-70037,-2.7576e+05,44
-71448,-2.7573e+05,44
-73008,-2.7643e+05,44
-74675,-2.7598e+05,44
-75232,-2.7567e+05,44
-75237,-2.7542e+05,44
-75676,-2.7571e+05,44
-76295,-2.7529e+05,44
-75557,-2.7634e+05,44
-75305,-2.7597e+05,44
-74799,-2.7587e+05,44
-74049,-2.7611e+05,44
-73225,-2.7651e+05,44
-72813,-2.7672e+05,44
-72004,-2.7703e+05,44
-70560,-2.7697e+05,44
-69600,-2.7672e+05,44
-68665,-2.7668e+05,44
-67136,-2.7634e+05,44
-66120,-2.7665e+05,44
-64822,-2.7679e+05,44
-64439,-2.767e+05,44
-64661,-2.7677e+05,44
-64103,-2.7711e+05,44
-64448,-2.769e+05,44
-64410,-2.7669e+05,44
-64221,-2.763e+05,44
-64744,-2.7671e+05,44
-64836,-2.7678e+05,44
-65718,-2.7652e+05,44
-66716,-2.7635e+05,44
-66928,-2.7669e+05,44
-67794,-2.7651e+05,44
-69950,-2.7624e+05,44
-70317,-2.7617e+05,44
-71260,-2.7609e+05,44
-71886,-2.7578e+05,44
-73566,-2.757e+05,44
-73581,-2.7688e+05,44
-74813,-2.7661e+05,44
-74118,-2.7619e+05,44
-74429,-2.7574e+05,44
-74522,-2.7611e+05,44
-75134,-2.7616e+05,44
-74947,-2.764e+05,44
-74367,-2.76e+05,44
-74100,-2.7589e+05,44
-73646,-2.7638e+05,44
-72995,-2.7658e+05,44
-72014,-2.7635e+05,44
-69971,-2.7647e+05,44
-68238,-2.7654e+05,44
-67112,-2.7644e+05,44
-66522,-2.7623e+05,44
-65966,-2.7692e+05,44
-66463,-2.774e+05,44
-66563,-2.7693e+05,44
-67073,-2.7723e+05,44
-67365,-2.7725e+05,44
-67753,-2.7742e+05,44
-67735,-2.7714e+05,44
-68259,-2.7729e+05,44
-68475,-2.7675e+05,44
-68274,-2.7634e+05,44
-69295,-2.7631e+05,44
-69822,-2.7619e+05,44
-70795,-2.7599e+05,44
-72296,-2.763e+05,44
-72077,-2.7558e+05,44
-73327,-2.7536e+05,44
-74208,-2.754e+05,44
-74919,-2.7538e+05,44
-74251,-2.7559e+05,44
-74472,-2.7584e+05,44
-74399,-2.756e+05,44
-74190,-2.7585e+05,44
-73921,-2.7601e+05,44
-73319,-2.7571e+05,44
-73149,-2.7635e+05,44
-71954,-2.7607e+05,44
-71316,-2.7612e+05,44
-70885,-2.7611e+05,44
-70275,-2.768e+05,44
-68925,-2.7655e+05,44
-68182,-2.7677e+05,44
-67663,-2.7704e+05,44
-67020,-2.762e+05,44
-66156,-2.7609e+05,44
-65499,-2.762e+05,44
-64375,-2.7606e+05,44
-64609,-2.761e+05,44
-64971,-2.7586e+05,44
-64734,-2.758e+05,44
-65172,-2.7605e+05,44
-65846,-2.7617e+05,44
-66983,-2.76e+05,44
-67436,-2.7611e+05,44
-68198,-2.7543e+05,44
-68474,-2.7548e+05,44
-69043,-2.7548e+05,44
-71019,-2.7515e+05,44
-71486,-2.7534e+05,44
-72095,-2.7481e+05,44
-72671,-2.7486e+05,44
-73553,-2.7494e+05,44
-73248,-2.7462e+05,44
-73800,-2.75e+05,44
-73021,-2.7445e+05,44
-72636,-2.7484e+05,44
-73077,-2.7512e+05,44
-72180,-2.7519e+05,44
-72167,-2.7557e+05,44
-70667,-2.7469e+05,44
-69262,-2.7513e+05,44
-68006,-2.7509e+05,44
-66759,-2.7534e+05,44
-65532,-2.762e+05,44
-64362,-2.7585e+05,44
-63041,-2.7564e+05,44
-62855,-2.7583e+05,44
-62106,-2.7616e+05,44
-62049,-2.7669e+05,44
-62427,-2.7632e+05,44
-61963,-2.7639e+05,44
-62257,-2.7612e+05,44
-62121,-2.7636e+05,44
-62463,-2.7578e+05,44
-62723,-2.7553e+05,44
-64033,-2.7578e+05,44
-64602,-2.7583e+05,44
-66014,-2.7646e+05,44
-66630,-2.7594e+05,44
-67631,-2.7559e+05,44
-69056,-2.752e+05,44
-69716,-2.7506e+05,44
-71201,-2.7524e+05,44
-71671,-2.7531e+05,44
-73685,-2.7596e+05,44
-73526,-2.7528e+05,44
-72767,-2.7508e+05,44
-73988,-2.7574e+05,44
-74236,-2.7582e+05,44
-73375,-2.7566e+05,44
-74263,-2.7585e+05,44
-74437,-2.7563e+05,44
-73963,-2.7592e+05,44
-73128,-2.7707e+05,44
-72004,-2.7594e+05,44
-71464,-2.7618e+05,44
-70156,-2.7589e+05,44
-67807,-2.7637e+05,44
-67424,-2.7641e+05,44
-65899,-2.7651e+05,44
-64645,-2.7618e+05,44
-63522,-2.7582e+05,44
-62555,-2.7592e+05,44
-62033,-2.7552e+05,44
-62145,-2.76e+05,44
-62681,-2.77e+05,44
-62996,-2.7565e+05,44
-63632,-2.7595e+05,44
-64173,-2.7579e+05,44
-65410,-2.7575e+05,44
-66630,-2.7594e+05,45
-67631,-2.7559e+05,45
-69056,-2.752e+05,45
-69716,-2.7506e+05,45
-71201,-2.7524e+05,45
-71671,-2.7531e+05,45
-73685,-2.7596e+05,45
-73526,-2.7528e+05,45
-72767,-2.7508e+05,45
-73988,-2.7574e+05,45
-74236,-2.7582e+05,45
-73375,-2.7566e+05,45
-74263,-2.7585e+05,45
-74437,-2.7563e+05,45
-73963,-2.7592e+05,45
-73128,-2.7707e+05,45
-72004,-2.7594e+05,45
-71464,-2.7618e+05,45
-70156,-2.7589e+05,45
-67807,-2.7637e+05,45
-67424,-2.7641e+05,45
-65899,-2.7651e+05,45
-64645,-2.7618e+05,45
-63522,-2.7582e+05,45
-62555,-2.7592e+05,45
-62033,-2.7552e+05,45
-62145,-2.76e+05,45
-62681,-2.77e+05,45
-62996,-2.7565e+05,45
-63632,-2.7595e+05,45
-64173,-2.7579e+05,45
-65410,-2.7575e+05,45
-66630,-2.7594e+05,46
-67631,-2.7559e+05,46
-69056,-2.752e+05,46
-69716,-2.7506e+05,46
-71201,-2.7524e+05,46
-71671,-2.7531e+05,46
-73685,-2.7596e+05,46
-73526,-2.7528e+05,46
-72767,-2.7508e+05,46
-73988,-2.7574e+05,46
-74236,-2.7582e+05,46
-73375,-2.7566e+05,46
-74263,-2.7585e+05,46
-74437,-2.7563e+05,46
-73963,-2.7592e+05,46
-73128,-2.7707e+05,46
-72004,-2.7594e+05,46
-71464,-2.7618e+05,46
-70156,-2.7589e+05,46
-67807,-2.7637e+05,46
-67424,-2.7641e+05,46
-65899,-2.7651e+05,46
-64645,-2.7618e+05,46
-63522,-2.7582e+05,46
-62555,-2.7592e+05,46
-62033,-2.7552e+05,46
-62145,-2.76e+05,46
-62681,-2.77e+05,46
-62996,-2.7565e+05,46
-63632,-2.7595e+05,46
-64173,-2.7579e+05,46
-65410,-2.7575e+05,46
-65899,-2.7633e+05,46
-67243,-2.7542e+05,46
-67895,-2.7613e+05,46
-69021,-2.7634e+05,46
-71035,-2.7565e+05,46
-72622,-2.7547e+05,46
-72738,-2.7607e+05,46
-74750,-2.7595e+05,46
-74630,-2.7603e+05,46
-75218,-2.7578e+05,46
-75625,-2.7597e+05,46
-75428,-2.7576e+05,46
-74604,-2.7574e+05,46
-74669,-2.7568e+05,46
-74180,-2.7588e+05,46
-73522,-2.7582e+05,46
-72843,-2.7578e+05,46
-72496,-2.7586e+05,46
-71961,-2.7648e+05,46
-70958,-2.7597e+05,46
-68962,-2.7591e+05,46
-67701,-2.7613e+05,46
-67123,-2.7573e+05,46
-66455,-2.7631e+05,46
-65022,-2.7634e+05,46
-65282,-2.7618e+05,46
-64992,-2.76e+05,46
-64061,-2.7613e+05,46
-63976,-2.761e+05,46
-64104,-2.7645e+05,46
-64339,-2.7632e+05,46
-65481,-2.7647e+05,46
-66617,-2.7634e+05,46
-67162,-2.7652e+05,46
-68032,-2.7609e+05,46
-68598,-2.7575e+05,46
-68739,-2.7594e+05,46
-70344,-2.759e+05,46
-71421,-2.7596e+05,46
-71899,-2.7521e+05,46
-73238,-2.7574e+05,46
-74477,-2.7532e+05,46
-75324,-2.7553e+05,46
-75155,-2.7575e+05,46
-75067,-2.7565e+05,46
-74799,-2.7584e+05,46
-74546,-2.7567e+05,46
-74326,-2.7574e+05,46
-73763,-2.7502e+05,46
-71878,-2.7495e+05,46
-70548,-2.7472e+05,46
-69447,-2.7509e+05,46
-68763,-2.7506e+05,46
-68683,-2.7463e+05,46
-67192,-2.7547e+05,46
-65959,-2.7557e+05,46
-65466,-2.7544e+05,46
-63770,-2.7585e+05,46
-63907,-2.7592e+05,46
-63889,-2.7549e+05,46
-63701,-2.755e+05,46
-63868,-2.7564e+05,46
-63802,-2.7531e+05,46
-63906,-2.7549e+05,46
-66617,-2.7634e+05,47
-67162,-2.7652e+05,47
-68032,-2.7609e+05,47
-68598,-2.7575e+05,47
-68739,-2.7594e+05,47
-70344,-2.759e+05,47
-71421,-2.7596e+05,47
-71899,-2.7521e+05,47
-73238,-2.7574e+05,47
-74477,-2.7532e+05,47
-75324,-2.7553e+05,47
-75155,-2.7575e+05,47
-75067,-2.7565e+05,47
-74799,-2.7584e+05,47
-74546,-2.7567e+05,47
-74326,-2.7574e+05,47
-73763,-2.7502e+05,47
-71878,-2.7495e+05,47
-70548,-2.7472e+05,47
-69447,-2.7509e+05,47
-68763,-2.7506e+05,47
-68683,-2.7463e+05,47
-67192,-2.7547e+05,47
-65959,-2.7557e+05,47
-65466,-2.7544e+05,47
-63770,-2.7585e+05,47
-63907,-2.7592e+05,47
-63889,-2.7549e+05,47
-63701,-2.755e+05,47
-63868,-2.7564e+05,47
-63802,-2.7531e+05,47
-63906,-2.7549e+05,47
-64442,-2.7586e+05,47
-65091,-2.7576e+05,47
-66616,-2.7595e+05,47
-67934,-2.763e+05,47
-68258,-2.759e+05,47
-69342,-2.7553e+05,47
-70723,-2.7585e+05,47
-71309,-2.7557e+05,47
-71676,-2.7558e+05,47
-72500,-2.7596e+05,47
-74661,-2.7607e+05,47
-75046,-2.7573e+05,47
-75244,-2.7559e+05,47
-75534,-2.7557e+05,47
-74721,-2.7531e+05,47
-73864,-2.7545e+05,47
-73648,-2.7528e+05,47
-73155,-2.7536e+05,47
-71968,-2.758e+05,47
-71506,-2.7584e+05,47
-70729,-2.7589e+05,47
-69659,-2.761e+05,47
-69079,-2.7578e+05,47
-67492,-2.7627e+05,47
-66037,-2.7623e+05,47
-64510,-2.7588e+05,47
-62652,-2.7595e+05,47
-61935,-2.7605e+05,47
-61856,-2.7617e+05,47
-61575,-2.7624e+05,47
-60815,-2.7579e+05,47
-61586,-2.755e+05,47
-61414,-2.753e+05,47
-61353,-2.7551e+05,47
-61850,-2.748e+05,47
-62802,-2.7513e+05,47
-63416,-2.7512e+05,47
-64443,-2.7561e+05,47
-65768,-2.757e+05,47
-66984,-2.7488e+05,47
-68700,-2.7474e+05,47
-69638,-2.748e+05,47
-70835,-2.747e+05,47
-72851,-2.7483e+05,47
-73554,-2.75e+05,47
-73733,-2.75e+05,47
-74412,-2.7532e+05,47
-74462,-2.7536e+05,47
-74144,-2.752e+05,47
-73774,-2.7529e+05,47
-73476,-2.7539e+05,47
-72520,-2.7521e+05,47
-72080,-2.7589e+05,47
-71710,-2.7592e+05,47
-71211,-2.7603e+05,47
-70871,-2.7629e+05,47
-70674,-2.7641e+05,47
-69486,-2.7652e+05,47
-69006,-2.7714e+05,47
-68628,-2.7744e+05,47
-66838,-2.7755e+05,47
-66563,-2.7736e+05,47
-65656,-2.7679e+05,47
-64828,-2.7675e+05,47
-70729,-2.7589e+05,48
-69659,-2.761e+05,48
-69079,-2.7578e+05,48
-67492,-2.7627e+05,48
-66037,-2.7623e+05,48
-64510,-2.7588e+05,48
-62652,-2.7595e+05,48
-61935,-2.7605e+05,48
-61856,-2.7617e+05,48
-61575,-2.7624e+05,48
-60815,-2.7579e+05,48
-61586,-2.755e+05,48
-61414,-2.753e+05,48
-61353,-2.7551e+05,48
-61850,-2.748e+05,48
-62802,-2.7513e+05,48
-63416,-2.7512e+05,48
-64443,-2.7561e+05,48
-65768,-2.757e+05,48
-66984,-2.7488e+05,48
-68700,-2.7474e+05,48
-69638,-2.748e+05,48
-70835,-2.747e+05,48
-72851,-2.7483e+05,48
-73554,-2.75e+05,48
-73733,-2.75e+05,48
-74412,-2.7532e+05,48
-74462,-2.7536e+05,48
-74144,-2.752e+05,48
-73774,-2.7529e+05,48
-73476,-2.7539e+05,48
-72520,-2.7521e+05,48
-72080,-2.7589e+05,48
-71710,-2.7592e+05,48
-71211,-2.7603e+05,48
-70871,-2.7629e+05,48
-70674,-2.7641e+05,48
-69486,-2.7652e+05,48
-69006,-2.7714e+05,48
-68628,-2.7744e+05,48
-66838,-2.7755e+05,48
-66563,-2.7736e+05,48
-65656,-2.7679e+05,48
-64828,-2.7675e+05,48
-64054,-2.7617e+05,48
-63347,-2.7635e+05,48
-62358,-2.7555e+05,48
-63152,-2.7515e+05,48
-63067,-2.7547e+05,48
-64857,-2.7599e+05,48
-66409,-2.7544e+05,48
-66953,-2.7586e+05,48
-68305,-2.7591e+05,48
-69626,-2.7566e+05,48
-70790,-2.7595e+05,48
-72187,-2.7577e+05,48
-73036,-2.7592e+05,48
-74030,-2.7572e+05,48
-74352,-2.7498e+05,48
-73627,-2.7512e+05,48
-73702,-2.7501e+05,48
-72719,-2.7488e+05,48
-72197,-2.7518e+05,48
-71785,-2.7467e+05,48
-71564,-2.7488e+05,48
-70701,-2.7485e+05,48
-70692,-2.7456e+05,48
-69672,-2.7544e+05,48
-69035,-2.7577e+05,48
-67935,-2.757e+05,48
-67426,-2.7568e+05,48
-66002,-2.7578e+05,48
-64277,-2.7663e+05,48
-63852,-2.7599e+05,48
-63469,-2.7593e+05,48
-63240,-2.7626e+05,48
-61711,-2.7592e+05,48
-61668,-2.76e+05,48
-61098,-2.7641e+05,48
-61578,-2.757e+05,48
-62041,-2.7643e+05,48
-63108,-2.7653e+05,48
-63919,-2.7671e+05,48
-65426,-2.7598e+05,48
-65750,-2.7528e+05,48
-66798,-2.7546e+05,48
-67985,-2.7514e+05,48
-69126,-2.7515e+05,48
-70384,-2.7468e+05,48
-71070,-2.7514e+05,48
-71997,-2.7489e+05,48
-72571,-2.7452e+05,48
-71899,-2.7416e+05,48
-71521,-2.751e+05,48
-72532,-2.747e+05,48
-71957,-2.7486e+05,48
-71363,-2.7503e+05,48
-71520,-2.7442e+05,48
-70754,-2.7458e+05,48
-69503,-2.7515e+05,48
-69508,-2.7486e+05,48
-68193,-2.7539e+05,48
-68033,-2.7563e+05,48
-67224,-2.7577e+05,48
-65780,-2.7585e+05,48
-64838,-2.7561e+05,48
-63942,-2.7595e+05,48
-62851,-2.7637e+05,48
-61711,-2.7592e+05,49
-61668,-2.76e+05,49
-61098,-2.7641e+05,49
-61578,-2.757e+05,49
-62041,-2.7643e+05,49
-63108,-2.7653e+05,49
-63919,-2.7671e+05,49
-65426,-2.7598e+05,49
-65750,-2.7528e+05,49
-66798,-2.7546e+05,49
-67985,-2.7514e+05,49
-69126,-2.7515e+05,49
-70384,-2.7468e+05,49
-71070,-2.7514e+05,49
-71997,-2.7489e+05,49
-72571,-2.7452e+05,49
-71899,-2.7416e+05,49
-71521,-2.751e+05,49
-72532,-2.747e+05,49
-71957,-2.7486e+05,49
-71363,-2.7503e+05,49
-71520,-2.7442e+05,49
-70754,-2.7458e+05,49
-69503,-2.7515e+05,49
-69508,-2.7486e+05,49
-68193,-2.7539e+05,49
-68033,-2.7563e+05,49
-67224,-2.7577e+05,49
-65780,-2.7585e+05,49
-64838,-2.7561e+05,49
-63942,-2.7595e+05,49
-62851,-2.7637e+05,49
-62028,-2.7625e+05,49
-61567,-2.764e+05,49
-61788,-2.7595e+05,49
-61789,-2.7592e+05,49
-61820,-2.7654e+05,49
-61965,-2.7619e+05,49
-63021,-2.7571e+05,49
-63836,-2.7581e+05,49
-64448,-2.754e+05,49
-65443,-2.754e+05,49
-66464,-2.752e+05,49
-67606,-2.7512e+05,49
-69198,-2.7538e+05,49
-70314,-2.7564e+05,49
-70723,-2.7505e+05,49
-72357,-2.7498e+05,49
-72396,-2.7503e+05,49
-72904,-2.7562e+05,49
-73796,-2.7505e+05,49
-73544,-2.752e+05,49
-73639,-2.7497e+05,49
-73453,-2.7527e+05,49
-72302,-2.7477e+05,49
-70953,-2.7539e+05,49
-69448,-2.7488e+05,49
-68060,-2.7481e+05,49
-67549,-2.7517e+05,49
-66322,-2.7541e+05,49
-65679,-2.7545e+05,49
-64840,-2.7599e+05,49
-64226,-2.7547e+05,49
-64361,-2.756e+05,49
-62028,-2.7625e+05,50
-61567,-2.764e+05,50
-61788,-2.7595e+05,50
-61789,-2.7592e+05,50
-61820,-2.7654e+05,50
-61965,-2.7619e+05,50
-63021,-2.7571e+05,50
-63836,-2.7581e+05,50
-64448,-2.754e+05,50
-65443,-2.754e+05,50
-66464,-2.752e+05,50
-67606,-2.7512e+05,50
-69198,-2.7538e+05,50
-70314,-2.7564e+05,50
-70723,-2.7505e+05,50
-72357,-2.7498e+05,50
-72396,-2.7503e+05,50
-72904,-2.7562e+05,50
-73796,-2.7505e+05,50
-73544,-2.752e+05,50
-73639,-2.7497e+05,50
-73453,-2.7527e+05,50
-72302,-2.7477e+05,50
-70953,-2.7539e+05,50
-69448,-2.7488e+05,50
-68060,-2.7481e+05,50
-67549,-2.7517e+05,50
-66322,-2.7541e+05,50
-65679,-2.7545e+05,50
-64840,-2.7599e+05,50
-64226,-2.7547e+05,50
-64361,-2.756e+05,50
-63510,-2.7533e+05,50
-63292,-2.7609e+05,50
-64065,-2.7576e+05,50
-63764,-2.7636e+05,50
-63950,-2.7582e+05,50
-64383,-2.7545e+05,50
-64346,-2.757e+05,50
-65549,-2.7615e+05,50
-66259,-2.7596e+05,50
-66811,-2.7563e+05,50
-67574,-2.7577e+05,50
-68032,-2.7559e+05,50
-68330,-2.7528e+05,50
-69828,-2.7491e+05,50
-70267,-2.7489e+05,50
-71465,-2.7505e+05,50
-71043,-2.7477e+05,50
-72291,-2.748e+05,50
-72424,-2.7461e+05,50
-73226,-2.7505e+05,50
-72704,-2.7514e+05,50
-72071,-2.7493e+05,50
-73014,-2.75e+05,50
-72349,-2.7527e+05,50
-71995,-2.7548e+05,50
-70821,-2.7474e+05,50
-69813,-2.7479e+05,50
-69012,-2.7528e+05,50
-68042,-2.7517e+05,50
-67604,-2.7536e+05,50
-66008,-2.7528e+05,50
-65706,-2.7563e+05,50
-65003,-2.7555e+05,50
-63811,-2.7566e+05,50
-62770,-2.7573e+05,50
-62709,-2.7582e+05,50
-61807,-2.759e+05,50
-62396,-2.7603e+05,50
-62683,-2.7577e+05,50
-62678,-2.7621e+05,50
-62661,-2.7584e+05,50
-63244,-2.7603e+05,50
-64496,-2.7593e+05,50
-64884,-2.7531e+05,50
-65845,-2.7515e+05,50
-66620,-2.7509e+05,50
-68419,-2.7485e+05,50
-69083,-2.7518e+05,50
-70168,-2.7475e+05,50
-71021,-2.7454e+05,50
-72344,-2.7523e+05,50
-72531,-2.7464e+05,50
-73545,-2.7518e+05,50
-74500,-2.7561e+05,50
-74143,-2.7529e+05,50
-74883,-2.7536e+05,50
-74983,-2.7551e+05,50
-74648,-2.7571e+05,50
-74011,-2.7548e+05,50
-72781,-2.7557e+05,50
-71931,-2.7571e+05,50
-70568,-2.751e+05,50
-69482,-2.7485e+05,50
-67166,-2.7514e+05,50
-65003,-2.7555e+05,50
-63811,-2.7566e+05,50
-62770,-2.7573e+05,50
-62709,-2.7582e+05,50
-61807,-2.759e+05,50
-62396,-2.7603e+05,50
-62683,-2.7577e+05,50
-62678,-2.7621e+05,50
-62661,-2.7584e+05,50
-63244,-2.7603e+05,50
-64496,-2.7593e+05,50
-64884,-2.7531e+05,50
-65845,-2.7515e+05,50
-66620,-2.7509e+05,50
-68419,-2.7485e+05,50
-69083,-2.7518e+05,50
-70168,-2.7475e+05,50
-71021,-2.7454e+05,50
-72344,-2.7523e+05,50
-72531,-2.7464e+05,50
-73545,-2.7518e+05,50
-74500,-2.7561e+05,50
-74143,-2.7529e+05,50
-74883,-2.7536e+05,50
-74983,-2.7551e+05,50
-74648,-2.7571e+05,50
-74011,-2.7548e+05,50
-72781,-2.7557e+05,50
-71931,-2.7571e+05,50
-70568,-2.751e+05,50
-69482,-2.7485e+05,50
-67166,-2.7514e+05,50
-66026,-2.758e+05,50
-65406,-2.7612e+05,50
-64139,-2.7494e+05,50
-63182,-2.7569e+05,50
-63139,-2.7608e+05,50
-63251,-2.7552e+05,50
-63110,-2.7575e+05,50
-63031,-2.7553e+05,50
-63358,-2.7511e+05,50
-63441,-2.7547e+05,50
-64474,-2.7559e+05,50
-64011,-2.7548e+05,50
-64886,-2.7552e+05,50
-65625,-2.7472e+05,50
-66319,-2.7545e+05,50
-66966,-2.7549e+05,50
-68686,-2.7547e+05,50
-69802,-2.7514e+05,50
-70948,-2.7493e+05,50
-71980,-2.7568e+05,50
-72653,-2.7504e+05,50
-73082,-2.753e+05,50
-72990,-2.7505e+05,50
-72806,-2.7518e+05,50
-72913,-2.755e+05,50
-73345,-2.7611e+05,50
-72889,-2.7506e+05,50
-72223,-2.7525e+05,50
-71660,-2.7533e+05,50
-71181,-2.7529e+05,50
-70346,-2.7613e+05,50
-70316,-2.7559e+05,50
-68802,-2.7559e+05,50
-67659,-2.7501e+05,50
-66388,-2.7522e+05,50
-64586,-2.7476e+05,50
-63733,-2.7545e+05,50
-62921,-2.7494e+05,50
-62651,-2.7487e+05,50
-62347,-2.7514e+05,50
-63085,-2.7551e+05,50
-63277,-2.7552e+05,50
-63564,-2.7526e+05,50
-63996,-2.7487e+05,50
-64126,-2.758e+05,50
-64993,-2.7512e+05,50
-65065,-2.7499e+05,50
-65944,-2.7521e+05,50
-66768,-2.7525e+05,50
-68557,-2.7496e+05,50
-69306,-2.751e+05,50
-70093,-2.7501e+05,50
-71677,-2.7504e+05,50
-72199,-2.7501e+05,50
-72461,-2.7513e+05,50
-72803,-2.7485e+05,50
-73045,-2.7498e+05,50
-72915,-2.75e+05,50
-73125,-2.7478e+05,50
-73178,-2.7478e+05,50
-72217,-2.7461e+05,50
-71334,-2.7484e+05,50
-70140,-2.7396e+05,50
-69615,-2.7469e+05,50
-69361,-2.7507e+05,50
-68649,-2.7424e+05,50
-67097,-2.7463e+05,50
-65984,-2.7473e+05,50
-64813,-2.7494e+05,50
-63284,-2.749e+05,50
-63578,-2.747e+05,50
-63744,-2.7557e+05,50
-62689,-2.7495e+05,50
-63163,-2.7551e+05,50
-63005,-2.7544e+05,50
-63284,-2.7455e+05,50
-63661,-2.7509e+05,50
-64307,-2.7536e+05,50
-64974,-2.752e+05,50
-64986,-2.7458e+05,50
-65706,-2.7455e+05,50
-66018,-2.7479e+05,50
-67762,-2.7475e+05,50
-69237,-2.7518e+05,50
-69969,-2.7506e+05,50
-71187,-2.7516e+05,50
-72116,-2.7516e+05,50
-72612,-2.7432e+05,50
-72409,-2.7474e+05,50
-72516,-2.7484e+05,50
-72078,-2.7415e+05,50
-71709,-2.7398e+05,50
-70799,-2.7407e+05,50
-71189,-2.7431e+05,50
-70388,-2.7419e+05,50
-68994,-2.7435e+05,50
-68340,-2.7402e+05,50
-68105,-2.7424e+05,50
-67834,-2.7473e+05,50
-66329,-2.7484e+05,50
-66199,-2.7436e+05,50
-64712,-2.7468e+05,50
-63461,-2.7462e+05,50
-62990,-2.7413e+05,50
-63199,-2.7512e+05,50
-62514,-2.7474e+05,50
-62492,-2.7552e+05,50
-62480,-2.7518e+05,50
-63116,-2.7544e+05,50
-63630,-2.7514e+05,50
-64288,-2.7556e+05,50
-65061,-2.7585e+05,50
-65601,-2.7554e+05,50
-65953,-2.7538e+05,50
-66749,-2.7545e+05,50
-67570,-2.7497e+05,50
-68665,-2.745e+05,50
-69597,-2.7517e+05,50
-70730,-2.7482e+05,50
-71296,-2.7467e+05,50
-72054,-2.7444e+05,50
-71442,-2.744e+05,50
-72214,-2.7441e+05,50
-72075,-2.7389e+05,50
-72170,-2.7434e+05,50
-72203,-2.7385e+05,50
-71216,-2.7491e+05,50
-70743,-2.7389e+05,50
-68340,-2.7402e+05,51
-68105,-2.7424e+05,51
-67834,-2.7473e+05,51
-66329,-2.7484e+05,51
-66199,-2.7436e+05,51
-64712,-2.7468e+05,51
-63461,-2.7462e+05,51
-62990,-2.7413e+05,51
-63199,-2.7512e+05,51
-62514,-2.7474e+05,51
-62492,-2.7552e+05,51
-62480,-2.7518e+05,51
-63116,-2.7544e+05,51
-63630,-2.7514e+05,51
-64288,-2.7556e+05,51
-65061,-2.7585e+05,51
-65601,-2.7554e+05,51
-65953,-2.7538e+05,51
-66749,-2.7545e+05,51
-67570,-2.7497e+05,51
-68665,-2.745e+05,51
-69597,-2.7517e+05,51
-70730,-2.7482e+05,51
-71296,-2.7467e+05,51
-72054,-2.7444e+05,51
-71442,-2.744e+05,51
-72214,-2.7441e+05,51
-72075,-2.7389e+05,51
-72170,-2.7434e+05,51
-72203,-2.7385e+05,51
-71216,-2.7491e+05,51
-70743,-2.7389e+05,51
-70559,-2.7432e+05,51
-69918,-2.7436e+05,51
-69054,-2.7391e+05,51
-68470,-2.7427e+05,51
-67531,-2.7415e+05,51
-66117,-2.7484e+05,51
-64833,-2.7437e+05,51
-64259,-2.7524e+05,51
-63070,-2.751e+05,51
-63000,-2.7501e+05,51
-63120,-2.7546e+05,51
-62014,-2.7489e+05,51
-62579,-2.752e+05,51
-63401,-2.7564e+05,51
-64062,-2.7542e+05,51
-64274,-2.7546e+05,51
-65505,-2.7523e+05,51
-66639,-2.7531e+05,51
-67526,-2.7506e+05,51
-68002,-2.7539e+05,51
-68867,-2.7489e+05,51
-70029,-2.7475e+05,51
-70914,-2.7513e+05,51
-72116,-2.753e+05,51
-72645,-2.7555e+05,51
-72872,-2.7455e+05,51
-72934,-2.7436e+05,51
-73435,-2.7489e+05,51
-73005,-2.7409e+05,51
-72888,-2.7427e+05,51
-72483,-2.7375e+05,51
-72438,-2.7452e+05,51
-70559,-2.7432e+05,52
-69918,-2.7436e+05,52
-69054,-2.7391e+05,52
-68470,-2.7427e+05,52
-67531,-2.7415e+05,52
-66117,-2.7484e+05,52
-64833,-2.7437e+05,52
-64259,-2.7524e+05,52
-63070,-2.751e+05,52
-63000,-2.7501e+05,52
-63120,-2.7546e+05,52
-62014,-2.7489e+05,52
-62579,-2.752e+05,52
-63401,-2.7564e+05,52
-64062,-2.7542e+05,52
-64274,-2.7546e+05,52
-65505,-2.7523e+05,52
-66639,-2.7531e+05,52
-67526,-2.7506e+05,52
-68002,-2.7539e+05,52
-68867,-2.7489e+05,52
-70029,-2.7475e+05,52
-70914,-2.7513e+05,52
-72116,-2.753e+05,52
-72645,-2.7555e+05,52
-72872,-2.7455e+05,52
-72934,-2.7436e+05,52
-73435,-2.7489e+05,52
-73005,-2.7409e+05,52
-72888,-2.7427e+05,52
-72483,-2.7375e+05,52
-72438,-2.7452e+05,52
-72155,-2.7402e+05,52
-71026,-2.737e+05,52
-69281,-2.7426e+05,52
-67752,-2.7397e+05,52
-67217,-2.7451e+05,52
-67453,-2.7391e+05,52
-64850,-2.7375e+05,52
-64470,-2.7448e+05,52
-63624,-2.7438e+05,52
-62890,-2.7475e+05,52
-63142,-2.746e+05,52
-62590,-2.7398e+05,52
-61909,-2.741e+05,52
-61858,-2.7437e+05,52
-61217,-2.7455e+05,52
-62201,-2.7408e+05,52
-62103,-2.7415e+05,52
-63027,-2.7449e+05,52
-63706,-2.7461e+05,52
-64312,-2.7446e+05,52
-65678,-2.7495e+05,52
-66306,-2.7486e+05,52
-66944,-2.7484e+05,52
-68544,-2.7499e+05,52
-69040,-2.7457e+05,52
-70113,-2.7444e+05,52
-71318,-2.7431e+05,52
-71278,-2.74e+05,52
-71874,-2.742e+05,52
-72183,-2.741e+05,52
-72333,-2.7456e+05,52
-73115,-2.7438e+05,52
-73722,-2.7436e+05,52
-73544,-2.7465e+05,52
-72128,-2.7428e+05,52
-72089,-2.7485e+05,52
-71483,-2.743e+05,52
-70611,-2.7488e+05,52
-70226,-2.7443e+05,52
-69174,-2.7501e+05,52
-67875,-2.7504e+05,52
-67481,-2.7441e+05,52
-66522,-2.7477e+05,52
-65757,-2.7502e+05,52
-65971,-2.7541e+05,52
-65386,-2.7552e+05,52
-65000,-2.7522e+05,52
-64651,-2.7503e+05,52
-64855,-2.7503e+05,52
-65033,-2.7591e+05,52
-64869,-2.7592e+05,52
-65844,-2.7495e+05,52
-66595,-2.7537e+05,52
-66894,-2.751e+05,52
-67338,-2.7496e+05,52
-67516,-2.7542e+05,52
-68954,-2.748e+05,52
-70068,-2.7455e+05,52
-70879,-2.7494e+05,52
-71991,-2.75e+05,52
-72434,-2.7521e+05,52
-72589,-2.7439e+05,52
-72518,-2.7439e+05,52
-73081,-2.7432e+05,52
-73722,-2.7436e+05,53
-73544,-2.7465e+05,53
-72128,-2.7428e+05,53
-72089,-2.7485e+05,53
-71483,-2.743e+05,53
-70611,-2.7488e+05,53
-70226,-2.7443e+05,53
-69174,-2.7501e+05,53
-67875,-2.7504e+05,53
-67481,-2.7441e+05,53
-66522,-2.7477e+05,53
-65757,-2.7502e+05,53
-65971,-2.7541e+05,53
-65386,-2.7552e+05,53
-65000,-2.7522e+05,53
-64651,-2.7503e+05,53
-64855,-2.7503e+05,53
-65033,-2.7591e+05,53
-64869,-2.7592e+05,53
-65844,-2.7495e+05,53
-66595,-2.7537e+05,53
-66894,-2.751e+05,53
-67338,-2.7496e+05,53
-67516,-2.7542e+05,53
-68954,-2.748e+05,53
-70068,-2.7455e+05,53
-70879,-2.7494e+05,53
-71991,-2.75e+05,53
-72434,-2.7521e+05,53
-72589,-2.7439e+05,53
-72518,-2.7439e+05,53
-73081,-2.7432e+05,53
-72075,-2.7475e+05,53
-72253,-2.7451e+05,53
-72041,-2.7419e+05,53
-71623,-2.7404e+05,53
-70507,-2.7368e+05,53
-70323,-2.7337e+05,53
-69778,-2.742e+05,53
-68852,-2.7429e+05,53
-67306,-2.7408e+05,53
-66342,-2.7422e+05,53
-65144,-2.7403e+05,53
-63811,-2.7455e+05,53
-62097,-2.7373e+05,53
-61647,-2.7413e+05,53
-61631,-2.7399e+05,53
-60917,-2.7418e+05,53
-60687,-2.7371e+05,53
-60693,-2.7364e+05,53
-61500,-2.7399e+05,53
-61360,-2.7371e+05,53
-61893,-2.7397e+05,53
-62175,-2.7404e+05,53
-63682,-2.7412e+05,53
-64319,-2.7437e+05,53
-64948,-2.7455e+05,53
-66878,-2.7376e+05,53
-67800,-2.7461e+05,53
-69221,-2.7468e+05,53
-70310,-2.7463e+05,53
-71309,-2.7478e+05,53
-71817,-2.7413e+05,53
-72856,-2.7377e+05,53
-72933,-2.7399e+05,53
-74482,-2.7501e+05,53
-73872,-2.7467e+05,53
-73291,-2.7477e+05,53
-72755,-2.7471e+05,53
-73200,-2.75e+05,53
-72239,-2.7491e+05,53
-71313,-2.7541e+05,53
-70889,-2.7529e+05,53
-69737,-2.7532e+05,53
-68241,-2.7447e+05,53
-67178,-2.7431e+05,53
-65575,-2.7431e+05,53
-64031,-2.7422e+05,53
-62869,-2.7388e+05,53
-61565,-2.7401e+05,53
-62048,-2.7443e+05,53
-62059,-2.7436e+05,53
-61864,-2.7466e+05,53
-61951,-2.7408e+05,53
-62053,-2.7455e+05,53
-62161,-2.7463e+05,53
-63443,-2.7402e+05,53
-63552,-2.7375e+05,53
-64056,-2.7407e+05,53
-64669,-2.7377e+05,53
-65673,-2.7377e+05,53
-66661,-2.7327e+05,53
-68009,-2.7364e+05,53
-68684,-2.7369e+05,53
-69946,-2.7348e+05,53
-70581,-2.7428e+05,53
-70423,-2.7424e+05,53
-71328,-2.7384e+05,53
-72238,-2.7371e+05,53
-71697,-2.7396e+05,53
-71419,-2.7401e+05,53
-71588,-2.7452e+05,53
-70972,-2.7395e+05,53
-70166,-2.7395e+05,53
-70230,-2.7392e+05,53
-70129,-2.7484e+05,53
-70121,-2.7443e+05,53
-68579,-2.7481e+05,53
-67617,-2.7461e+05,53
-66105,-2.7435e+05,53
-64577,-2.7413e+05,53
-62982,-2.739e+05,53
-62598,-2.7398e+05,53
-63245,-2.7411e+05,53
-62243,-2.7381e+05,53
-62358,-2.7408e+05,53
-62857,-2.7467e+05,53
-63116,-2.7389e+05,53
-63183,-2.7432e+05,53
-63846,-2.7466e+05,53
-64239,-2.743e+05,53
-65362,-2.7409e+05,53
-65858,-2.7429e+05,53
-66515,-2.7474e+05,53
-67833,-2.749e+05,53
-69344,-2.7421e+05,53
-69642,-2.7456e+05,53
-71462,-2.7453e+05,53
-71898,-2.7456e+05,53
-71981,-2.7392e+05,53
-72004,-2.7418e+05,53
-71706,-2.7419e+05,53
-72179,-2.742e+05,53
-71722,-2.742e+05,53
-71535,-2.7451e+05,53
-69954,-2.7375e+05,53
-69058,-2.7368e+05,53
-69186,-2.7449e+05,53
-68196,-2.7479e+05,53
-68357,-2.7465e+05,53
-67991,-2.7445e+05,53
-66725,-2.7474e+05,53
-66070,-2.7569e+05,53
-65615,-2.7515e+05,53
-64894,-2.7485e+05,53
-63777,-2.7496e+05,53
-63242,-2.75e+05,53
-63078,-2.7495e+05,53
-62896,-2.7494e+05,53
-62592,-2.7433e+05,53
-63167,-2.7425e+05,53
-62853,-2.7424e+05,53
-64407,-2.7402e+05,53
-65920,-2.7381e+05,53
-66896,-2.7454e+05,53
-67906,-2.746e+05,53
-69363,-2.7464e+05,53
-70526,-2.7454e+05,53
-71703,-2.7465e+05,53
-72624,-2.7455e+05,53
-73021,-2.7521e+05,53
-74653,-2.7496e+05,53
-74008,-2.7477e+05,53
-74283,-2.7455e+05,53
-74624,-2.7438e+05,53
-73622,-2.7381e+05,53
-73089,-2.7343e+05,53
-72530,-2.7349e+05,53
-71167,-2.7338e+05,53
-70313,-2.7312e+05,53
-68947,-2.7297e+05,53
-67610,-2.7282e+05,53
-66736,-2.7241e+05,53
-65467,-2.7223e+05,53
-64168,-2.7288e+05,53
-64105,-2.7343e+05,53
-62856,-2.7373e+05,53
-61925,-2.7373e+05,53
-61257,-2.7398e+05,53
-61403,-2.7416e+05,53
-61172,-2.744e+05,53
-60869,-2.7432e+05,53
-59678,-2.74e+05,53
-60050,-2.7375e+05,53
-60323,-2.741e+05,53
-60757,-2.7452e+05,53
-62061,-2.7426e+05,53
-62536,-2.7421e+05,53
-63693,-2.7421e+05,53
-64290,-2.738e+05,53
-65052,-2.7389e+05,53
-66174,-2.7353e+05,53
-67068,-2.7379e+05,53
-67603,-2.7358e+05,53
-68765,-2.7352e+05,53
-69024,-2.7328e+05,53
-68865,-2.7298e+05,53
-70063,-2.7328e+05,53
-70088,-2.7268e+05,53
-69592,-2.7362e+05,53
-69610,-2.73e+05,53
-69682,-2.7338e+05,53
-69815,-2.7341e+05,53
-68948,-2.7334e+05,53
-68552,-2.7326e+05,53
-68186,-2.7325e+05,53
-66578,-2.7355e+05,53
-66056,-2.7283e+05,53
-64830,-2.7398e+05,53
-64479,-2.7343e+05,53
-65108,-2.7437e+05,53
-63307,-2.7408e+05,53
-63771,-2.7448e+05,53
-63547,-2.7435e+05,53
-63299,-2.7469e+05,53
-63236,-2.7418e+05,53
-63170,-2.7466e+05,53
-63173,-2.7505e+05,53
-63142,-2.7407e+05,53
-63965,-2.7443e+05,53
-64608,-2.7411e+05,53
-66071,-2.7457e+05,53
-67160,-2.7464e+05,53
-67944,-2.7496e+05,53
-69264,-2.7475e+05,53
-69924,-2.7471e+05,53
-71012,-2.7458e+05,53
-71364,-2.744e+05,53
-71710,-2.7431e+05,53
-71241,-2.7381e+05,53
-71102,-2.7445e+05,53
-72117,-2.7361e+05,53
-71510,-2.7383e+05,53
-71366,-2.7458e+05,53
-71594,-2.7424e+05,53
-70814,-2.7404e+05,53
-70074,-2.741e+05,53
-69037,-2.7404e+05,53
-68071,-2.7433e+05,53
-67305,-2.7464e+05,53
-66752,-2.7378e+05,53
-64999,-2.7417e+05,53
-63046,-2.7386e+05,53
-62593,-2.7411e+05,53
-61302,-2.7369e+05,53
-61711,-2.7427e+05,53
-61636,-2.7431e+05,53
-60904,-2.7377e+05,53
-62145,-2.7371e+05,53
-62659,-2.7418e+05,53
-63029,-2.7382e+05,53
-63530,-2.7363e+05,53
-63682,-2.7403e+05,53
-64666,-2.7394e+05,53
-65608,-2.7413e+05,53
-66333,-2.7381e+05,53
-67266,-2.7409e+05,53
-69092,-2.74e+05,53
-68962,-2.742e+05,53
-69945,-2.7353e+05,53
-70380,-2.7331e+05,53
-71943,-2.7407e+05,53
-72465,-2.7381e+05,53
-72665,-2.7445e+05,53
-72440,-2.7403e+05,53
-72374,-2.7385e+05,53
-72212,-2.7434e+05,53
-72108,-2.7392e+05,53
-72412,-2.7409e+05,53
-71492,-2.7434e+05,53
-70557,-2.743e+05,53
-68831,-2.7438e+05,53
-68488,-2.7418e+05,53
-68157,-2.7436e+05,53
-66585,-2.7456e+05,53
-66090,-2.748e+05,53
-66073,-2.7467e+05,53
-64256,-2.7436e+05,53
-63232,-2.7462e+05,53
-63310,-2.7453e+05,53
-62601,-2.7488e+05,53
-62945,-2.7399e+05,53
-62612,-2.7471e+05,53
-63408,-2.7463e+05,53
-64196,-2.7441e+05,53
-64702,-2.7431e+05,53
-65597,-2.7432e+05,53
-65688,-2.7408e+05,53
-66177,-2.7416e+05,53
-66952,-2.7416e+05,53
-66812,-2.7419e+05,53
-68205,-2.7427e+05,53
-69591,-2.7404e+05,53
-69677,-2.7382e+05,53
-70733,-2.7361e+05,53
-70632,-2.7394e+05,53
-71212,-2.7371e+05,53
-71957,-2.7366e+05,53
-71155,-2.7348e+05,53
-71340,-2.7384e+05,53
-70816,-2.7351e+05,53
-70172,-2.7422e+05,53
-68781,-2.7283e+05,53
-68113,-2.7378e+05,53
-66997,-2.7354e+05,53
-66061,-2.737e+05,53
-65015,-2.731e+05,53
-63564,-2.7334e+05,53
-63359,-2.7335e+05,53
-62963,-2.7332e+05,53
-63078,-2.7383e+05,53
-61906,-2.7309e+05,53
-62964,-2.7359e+05,53
-62971,-2.7362e+05,53
-62816,-2.7395e+05,53
-63168,-2.7392e+05,53
-63233,-2.7344e+05,53
-63597,-2.7369e+05,53
-63691,-2.7344e+05,53
-64405,-2.7388e+05,53
-64991,-2.7385e+05,53
-66495,-2.7422e+05,53
-66926,-2.7357e+05,53
-68237,-2.7408e+05,53
-68898,-2.7426e+05,53
-69601,-2.7376e+05,53
-69267,-2.7352e+05,53
-70695,-2.7416e+05,53
-70672,-2.7433e+05,53
-71187,-2.7333e+05,53
-71249,-2.7354e+05,53
-70277,-2.7343e+05,53
-70086,-2.7328e+05,53
-69886,-2.7345e+05,53
-69915,-2.7324e+05,53
-69294,-2.7359e+05,53
-67627,-2.7333e+05,53
-67795,-2.7325e+05,53
-67010,-2.7379e+05,53
-67127,-2.7362e+05,53
-66478,-2.7254e+05,53
-65049,-2.7355e+05,53
-64218,-2.7385e+05,53
-64293,-2.7361e+05,53
-63319,-2.7421e+05,53
-63111,-2.7445e+05,53
-63027,-2.7416e+05,53
-62295,-2.7407e+05,53
-62289,-2.7382e+05,53
-62951,-2.7406e+05,53
-62848,-2.7391e+05,53
-62928,-2.7449e+05,53
-63353,-2.7465e+05,53
-63929,-2.7404e+05,53
-65209,-2.7438e+05,53
-66418,-2.7388e+05,53
-67416,-2.7413e+05,53
-68164,-2.7396e+05,53
-68391,-2.7381e+05,53
-69652,-2.7387e+05,53
-69860,-2.7344e+05,53
-71412,-2.7321e+05,53
-71309,-2.7349e+05,53
-71349,-2.7344e+05,53
-71558,-2.7351e+05,53
-72262,-2.7291e+05,53
-71688,-2.731e+05,53
-71911,-2.7371e+05,53
-72183,-2.7386e+05,53
-71535,-2.7373e+05,53
-71219,-2.7436e+05,53
-71126,-2.7468e+05,53
-70141,-2.7402e+05,53
-69754,-2.7458e+05,53
-68394,-2.7461e+05,53
-68313,-2.7481e+05,53
-67523,-2.7452e+05,53
-66730,-2.739e+05,53
-65257,-2.7504e+05,53
-65583,-2.7466e+05,53
-65247,-2.742e+05,53
-64832,-2.743e+05,53
-64403,-2.7443e+05,53
-64109,-2.738e+05,53
-63703,-2.7348e+05,53
-63432,-2.7418e+05,53
-64443,-2.7441e+05,53
-65873,-2.7429e+05,53
-67246,-2.7435e+05,53
-68454,-2.7427e+05,53
-68974,-2.7503e+05,53
-70144,-2.7474e+05,53
-71017,-2.7408e+05,53
-71946,-2.7381e+05,53
-72493,-2.7434e+05,53
-73189,-2.7372e+05,53
-72014,-2.7389e+05,53
-72623,-2.7353e+05,53
-72946,-2.738e+05,53
-72453,-2.7431e+05,53
-72207,-2.7414e+05,53
-72229,-2.7382e+05,53
-71703,-2.7355e+05,53
-70710,-2.7298e+05,53
-69384,-2.7351e+05,53
-68373,-2.7378e+05,53
-67946,-2.7334e+05,53
-67168,-2.7386e+05,53
-65871,-2.7372e+05,53
-65141,-2.7388e+05,53
-64781,-2.7365e+05,53
-63631,-2.7424e+05,53
-63855,-2.7418e+05,53
-63572,-2.7389e+05,53
-63578,-2.7435e+05,53
-63390,-2.7406e+05,53
-63549,-2.7411e+05,53
-63449,-2.7352e+05,53
-63776,-2.7434e+05,53
-64693,-2.7394e+05,53
-65350,-2.7383e+05,53
-66707,-2.7412e+05,53
-67669,-2.7391e+05,53
-68039,-2.7386e+05,53
-69513,-2.7408e+05,53
-70381,-2.7421e+05,53
-71153,-2.7393e+05,53
-70946,-2.7426e+05,53
-71752,-2.7383e+05,53
-72479,-2.7374e+05,53
-72059,-2.7357e+05,53
-72195,-2.7336e+05,53
-71843,-2.7316e+05,53
-71889,-2.727e+05,53
-71626,-2.7326e+05,53
-70355,-2.7286e+05,53
-69719,-2.7366e+05,53
-68717,-2.727e+05,53
-67446,-2.7323e+05,53
-66704,-2.7366e+05,53
-66619,-2.7298e+05,53
-65004,-2.7346e+05,53
-64889,-2.7368e+05,53
-63913,-2.7395e+05,53
-62834,-2.7383e+05,53
-62536,-2.7381e+05,53
-63067,-2.7377e+05,53
-63854,-2.7357e+05,53
-63307,-2.7402e+05,53
-63348,-2.7389e+05,53
-63571,-2.74e+05,53
-64162,-2.7356e+05,53
-64525,-2.7351e+05,53
-65268,-2.7349e+05,53
-65273,-2.7321e+05,53
-64981,-2.7383e+05,53
-65391,-2.7356e+05,53
-65958,-2.7343e+05,53
-66928,-2.7315e+05,53
-68228,-2.7367e+05,53
-69390,-2.7263e+05,53
-70717,-2.7352e+05,53
-70596,-2.7322e+05,53
-70872,-2.7314e+05,53
-71755,-2.7348e+05,53
-71763,-2.7305e+05,53
-71427,-2.7295e+05,53
-71176,-2.7324e+05,53
-71356,-2.7402e+05,53
-71131,-2.7321e+05,53
-69658,-2.736e+05,53
-68941,-2.741e+05,53
-69054,-2.7387e+05,53
-68927,-2.7358e+05,53
-66540,-2.7408e+05,53
-66200,-2.7436e+05,53
-65591,-2.7406e+05,53
-64385,-2.7375e+05,53
-63147,-2.7406e+05,53
-62649,-2.734e+05,53
-61574,-2.7372e+05,53
-61354,-2.74e+05,53
-61597,-2.7413e+05,53
-61989,-2.7393e+05,53
-62513,-2.7369e+05,53
-63594,-2.739e+05,53
-64591,-2.7391e+05,53
-65385,-2.7387e+05,53
-66050,-2.7369e+05,53
-67365,-2.74e+05,53
-67197,-2.7375e+05,53
-69358,-2.7395e+05,53
-70399,-2.7379e+05,53
-71822,-2.7449e+05,53
-72411,-2.7366e+05,53
-72857,-2.7344e+05,53
-73398,-2.7324e+05,53
-73951,-2.7342e+05,53
-74501,-2.7379e+05,53
-74002,-2.7355e+05,53
-74142,-2.7334e+05,53
-73122,-2.7366e+05,53
-72350,-2.734e+05,53
-71408,-2.7407e+05,53
-71077,-2.7346e+05,53
-69694,-2.7381e+05,53
-69070,-2.7367e+05,53
-66832,-2.7351e+05,53
-65352,-2.7349e+05,53
-64178,-2.735e+05,53
-63584,-2.7332e+05,53
-61473,-2.7296e+05,53
-61774,-2.7333e+05,53
-61825,-2.7317e+05,53
-62387,-2.7343e+05,53
-62482,-2.7367e+05,53
-63315,-2.7354e+05,53
-63698,-2.7413e+05,53
-64599,-2.7398e+05,53
-66243,-2.7393e+05,53
-66276,-2.742e+05,53
-67610,-2.7457e+05,53
-68521,-2.7448e+05,53
-69342,-2.7457e+05,53
-71603,-2.7451e+05,53
-71393,-2.7434e+05,53
-72119,-2.7402e+05,53
-72534,-2.7407e+05,53
-73502,-2.7439e+05,53
-73959,-2.7443e+05,53
-73706,-2.7422e+05,53
-74245,-2.741e+05,53
-73914,-2.7424e+05,53
-73500,-2.7389e+05,53
-73531,-2.7381e+05,53
-73162,-2.7351e+05,53
-72566,-2.7298e+05,53
-71007,-2.7349e+05,53
-70063,-2.7346e+05,53
-69810,-2.7295e+05,53
-69584,-2.7305e+05,53
-67979,-2.7336e+05,53
-67252,-2.7356e+05,53
-67318,-2.738e+05,53
-66215,-2.7387e+05,53
-66118,-2.7445e+05,53
-65527,-2.7367e+05,53
-64940,-2.7454e+05,53
-65442,-2.7412e+05,53
-65281,-2.7422e+05,53
-65308,-2.7371e+05,53
-65697,-2.7388e+05,53
-66305,-2.7429e+05,53
-66377,-2.7377e+05,53
-67073,-2.7397e+05,53
-67494,-2.7429e+05,53
-68703,-2.7414e+05,53
-68915,-2.7348e+05,53
-69380,-2.7329e+05,53
-70008,-2.7353e+05,53
-71186,-2.7292e+05,53
-72221,-2.7301e+05,53
-72633,-2.7289e+05,53
-73221,-2.7293e+05,53
-73144,-2.7366e+05,53
-73564,-2.7324e+05,53
-73250,-2.7296e+05,53
-73372,-2.7342e+05,53
-72612,-2.731e+05,53
-71911,-2.7358e+05,53
-71571,-2.7321e+05,53
-70864,-2.731e+05,53
-70185,-2.7398e+05,53
-69380,-2.7375e+05,53
-67378,-2.7392e+05,53
-67074,-2.7393e+05,53
-65997,-2.7398e+05,53
-65023,-2.7351e+05,53
-64422,-2.738e+05,53
-63964,-2.739e+05,53
-63556,-2.7401e+05,53
-63939,-2.741e+05,53
-63403,-2.7431e+05,53
-64545,-2.7379e+05,53
-64922,-2.7411e+05,53
-66227,-2.7358e+05,53
-67478,-2.7431e+05,53
-67621,-2.7401e+05,53
-68706,-2.7415e+05,53
-69177,-2.74e+05,53
-69453,-2.7411e+05,53
-71001,-2.7394e+05,53
-71754,-2.7375e+05,53
-72637,-2.7343e+05,53
-73176,-2.7373e+05,53
-73623,-2.7305e+05,53
-74008,-2.7332e+05,53
-73881,-2.7329e+05,53
-72892,-2.7325e+05,53
-72976,-2.7308e+05,53
-73111,-2.7334e+05,53
-72428,-2.7303e+05,53
-71877,-2.723e+05,53
-70445,-2.7249e+05,53
-69288,-2.7288e+05,53
-67576,-2.7246e+05,53
-66324,-2.7218e+05,53
-65437,-2.7198e+05,53
-64647,-2.7222e+05,53
-63200,-2.7179e+05,53
-62611,-2.7207e+05,53
-60755,-2.7187e+05,53
-60625,-2.7244e+05,53
-61277,-2.7204e+05,53
-60491,-2.7203e+05,53
-60749,-2.7269e+05,53
-60901,-2.7264e+05,53
-61388,-2.7252e+05,53
-61696,-2.727e+05,53
-62511,-2.728e+05,53
-62898,-2.7306e+05,53
-63956,-2.7289e+05,53
-64246,-2.727e+05,53
-64929,-2.7282e+05,53
-66928,-2.7288e+05,53
-68599,-2.7301e+05,53
-70104,-2.7336e+05,53
-70600,-2.7393e+05,53
-72389,-2.7344e+05,53
-73376,-2.737e+05,53
-73856,-2.7416e+05,53
-74408,-2.7446e+05,53
-74794,-2.7363e+05,53
-74509,-2.7388e+05,53
-74376,-2.742e+05,53
-73550,-2.7386e+05,53
-73076,-2.7398e+05,53
-71551,-2.7395e+05,53
-70611,-2.7364e+05,53
-70062,-2.7358e+05,53
-69083,-2.7405e+05,53
-66787,-2.7376e+05,53
-66763,-2.7415e+05,53
-65591,-2.7377e+05,53
-64816,-2.7342e+05,53
-63802,-2.7425e+05,53
-64180,-2.734e+05,53
-64130,-2.7391e+05,53
-64309,-2.7385e+05,53
-64130,-2.7382e+05,53
-64354,-2.7417e+05,53
-65312,-2.7386e+05,53
-65604,-2.7415e+05,53
-67487,-2.7485e+05,53
-68006,-2.7395e+05,53
-68245,-2.7458e+05,53
-69096,-2.7374e+05,53
-69446,-2.7455e+05,53
-71073,-2.7361e+05,53
-71742,-2.7372e+05,53
-72837,-2.7365e+05,53
-73130,-2.734e+05,53
-73606,-2.7313e+05,53
-74093,-2.7387e+05,53
-74910,-2.7342e+05,53
-75233,-2.7402e+05,53
-75083,-2.7346e+05,53
-74323,-2.7342e+05,53
-74771,-2.7374e+05,53
-74491,-2.7326e+05,53
-73845,-2.7314e+05,53
-72448,-2.7325e+05,53
-71097,-2.7341e+05,53
-69931,-2.7297e+05,53
-68474,-2.7229e+05,53
-67000,-2.7276e+05,53
-65877,-2.7259e+05,53
-65309,-2.7313e+05,53
-64167,-2.7346e+05,53
-64273,-2.7366e+05,53
-64795,-2.7367e+05,53
-64206,-2.7326e+05,53
-64207,-2.7449e+05,53
-64274,-2.7432e+05,53
-63967,-2.7367e+05,53
-64560,-2.7429e+05,53
-65160,-2.7447e+05,53
-65706,-2.744e+05,53
-67434,-2.7425e+05,53
-68133,-2.742e+05,53
-68045,-2.7434e+05,53
-69241,-2.7401e+05,53
-70056,-2.7366e+05,53
-69666,-2.734e+05,53
-70983,-2.7339e+05,53
-72086,-2.7337e+05,53
-73059,-2.7354e+05,53
-73521,-2.7334e+05,53
-73340,-2.7274e+05,53
-73927,-2.7312e+05,53
-73140,-2.7297e+05,53
-73659,-2.7355e+05,53
-73079,-2.732e+05,53
-72405,-2.7359e+05,53
-71475,-2.7309e+05,53
-70999,-2.7305e+05,53
-69636,-2.7303e+05,53
-69091,-2.7339e+05,53
-67457,-2.7315e+05,53
-66560,-2.7334e+05,53
-65978,-2.7355e+05,53
-64959,-2.732e+05,53
-64559,-2.7325e+05,53
-64317,-2.7347e+05,53
-63416,-2.731e+05,53
-63736,-2.7315e+05,53
-64204,-2.7299e+05,53
-64317,-2.7311e+05,53
-64891,-2.7319e+05,53
-65657,-2.731e+05,53
-66418,-2.7378e+05,53
-67387,-2.7339e+05,53
-67689,-2.7423e+05,53
-68739,-2.7363e+05,53
-69989,-2.7388e+05,53
-71063,-2.7382e+05,53
-71661,-2.7354e+05,53
-72164,-2.7311e+05,53
-73197,-2.7316e+05,53
-73731,-2.7286e+05,53
-73630,-2.728e+05,53
-74268,-2.7319e+05,53
-74293,-2.7308e+05,53
-74451,-2.7303e+05,53
-74714,-2.7266e+05,53
-74133,-2.7346e+05,53
-72683,-2.726e+05,53
-71516,-2.7285e+05,53
-70420,-2.7292e+05,53
-69687,-2.7325e+05,53
-68201,-2.7253e+05,53
-66428,-2.7321e+05,53
-64613,-2.7346e+05,53
-64328,-2.7373e+05,53
-63259,-2.7339e+05,53
-61948,-2.7316e+05,53
-61709,-2.7323e+05,53
-61757,-2.7313e+05,53
-61033,-2.7294e+05,53
-61682,-2.734e+05,53
-62374,-2.7256e+05,53
-62389,-2.7276e+05,53
-63116,-2.7293e+05,53
-63931,-2.7316e+05,53
-65126,-2.7289e+05,53
-66824,-2.7343e+05,53
-67183,-2.7356e+05,53
-68511,-2.7299e+05,53
-70666,-2.737e+05,53
-71624,-2.7279e+05,53
-71771,-2.7273e+05,53
-72948,-2.7272e+05,53
-72580,-2.7281e+05,53
-73867,-2.7285e+05,53
-74736,-2.7217e+05,53
-74359,-2.7257e+05,53
-73827,-2.7245e+05,53
-73507,-2.726e+05,53
-72683,-2.726e+05,54
-71516,-2.7285e+05,54
-70420,-2.7292e+05,54
-69687,-2.7325e+05,54
-68201,-2.7253e+05,54
-66428,-2.7321e+05,54
-64613,-2.7346e+05,54
-64328,-2.7373e+05,54
-63259,-2.7339e+05,54
-61948,-2.7316e+05,54
-61709,-2.7323e+05,54
-61757,-2.7313e+05,54
-61033,-2.7294e+05,54
-61682,-2.734e+05,54
-62374,-2.7256e+05,54
-62389,-2.7276e+05,54
-63116,-2.7293e+05,54
-63931,-2.7316e+05,54
-65126,-2.7289e+05,54
-66824,-2.7343e+05,54
-67183,-2.7356e+05,54
-68511,-2.7299e+05,54
-70666,-2.737e+05,54
-71624,-2.7279e+05,54
-71771,-2.7273e+05,54
-72948,-2.7272e+05,54
-72580,-2.7281e+05,54
-73867,-2.7285e+05,54
-74736,-2.7217e+05,54
-74359,-2.7257e+05,54
-73827,-2.7245e+05,54
-73507,-2.726e+05,54
-72683,-2.726e+05,55.5
-71516,-2.7285e+05,55.5
-70420,-2.7292e+05,55.5
-69687,-2.7325e+05,55.5
-68201,-2.7253e+05,55.5
-66428,-2.7321e+05,55.5
-64613,-2.7346e+05,55.5
-64328,-2.7373e+05,55.5
-63259,-2.7339e+05,55.5
-61948,-2.7316e+05,55.5
-61709,-2.7323e+05,55.5
-61757,-2.7313e+05,55.5
-61033,-2.7294e+05,55.5
-61682,-2.734e+05,55.5
-62374,-2.7256e+05,55.5
-62389,-2.7276e+05,55.5
-63116,-2.7293e+05,55.5
-63931,-2.7316e+05,55.5
-65126,-2.7289e+05,55.5
-66824,-2.7343e+05,55.5
-67183,-2.7356e+05,55.5
-68511,-2.7299e+05,55.5
-70666,-2.737e+05,55.5
-71624,-2.7279e+05,55.5
-71771,-2.7273e+05,55.5
-72948,-2.7272e+05,55.5
-72580,-2.7281e+05,55.5
-73867,-2.7285e+05,55.5
-74736,-2.7217e+05,55.5
-74359,-2.7257e+05,55.5
-73827,-2.7245e+05,55.5
-73507,-2.726e+05,55.5
-72683,-2.726e+05,57
-71516,-2.7285e+05,57
-70420,-2.7292e+05,57
-69687,-2.7325e+05,57
-68201,-2.7253e+05,57
-66428,-2.7321e+05,57
-64613,-2.7346e+05,57
-64328,-2.7373e+05,57
-63259,-2.7339e+05,57
-61948,-2.7316e+05,57
-61709,-2.7323e+05,57
-61757,-2.7313e+05,57
-61033,-2.7294e+05,57
-61682,-2.734e+05,57
-62374,-2.7256e+05,57
-62389,-2.7276e+05,57
-63116,-2.7293e+05,57
-63931,-2.7316e+05,57
-65126,-2.7289e+05,57
-66824,-2.7343e+05,57
-67183,-2.7356e+05,57
-68511,-2.7299e+05,57
-70666,-2.737e+05,57
-71624,-2.7279e+05,57
-71771,-2.7273e+05,57
-72948,-2.7272e+05,57
-72580,-2.7281e+05,57
-73867,-2.7285e+05,57
-74736,-2.7217e+05,57
-74359,-2.7257e+05,57
-73827,-2.7245e+05,57
-73507,-2.726e+05,57
-72683,-2.726e+05,58.5
-71516,-2.7285e+05,58.5
-70420,-2.7292e+05,58.5
-69687,-2.7325e+05,58.5
-68201,-2.7253e+05,58.5
-66428,-2.7321e+05,58.5
-64613,-2.7346e+05,58.5
-64328,-2.7373e+05,58.5
-63259,-2.7339e+05,58.5
-61948,-2.7316e+05,58.5
-61709,-2.7323e+05,58.5
-61757,-2.7313e+05,58.5
-61033,-2.7294e+05,58.5
-61682,-2.734e+05,58.5
-62374,-2.7256e+05,58.5
-62389,-2.7276e+05,58.5
-63116,-2.7293e+05,58.5
-63931,-2.7316e+05,58.5
-65126,-2.7289e+05,58.5
-66824,-2.7343e+05,58.5
-67183,-2.7356e+05,58.5
-68511,-2.7299e+05,58.5
-70666,-2.737e+05,58.5
-71624,-2.7279e+05,58.5
-71771,-2.7273e+05,58.5
-72948,-2.7272e+05,58.5
-72580,-2.7281e+05,58.5
-73867,-2.7285e+05,58.5
-74736,-2.7217e+05,58.5
-74359,-2.7257e+05,58.5
-73827,-2.7245e+05,58.5
-73507,-2.726e+05,58.5
-72889,-2.7266e+05,58.5
-72075,-2.724e+05,58.5
-71206,-2.7229e+05,58.5
-70458,-2.7287e+05,58.5
-69799,-2.7309e+05,58.5
-69199,-2.7283e+05,58.5
-68303,-2.7311e+05,58.5
-67216,-2.7355e+05,58.5
-66114,-2.7344e+05,58.5
-65478,-2.7319e+05,58.5
-64995,-2.736e+05,58.5
-64750,-2.7351e+05,58.5
-64826,-2.733e+05,58.5
-65139,-2.7278e+05,58.5
-64478,-2.7262e+05,58.5
-64213,-2.7318e+05,58.5
-65038,-2.7271e+05,58.5
-64804,-2.7329e+05,58.5
-66176,-2.7267e+05,58.5
-66530,-2.7295e+05,58.5
-67836,-2.7293e+05,58.5
-67035,-2.729e+05,58.5
-67106,-2.729e+05,58.5
-68918,-2.7254e+05,58.5
-70023,-2.7294e+05,58.5
-72011,-2.7303e+05,58.5
-72427,-2.7303e+05,58.5
-74203,-2.7273e+05,58.5
-73576,-2.7308e+05,58.5
-74512,-2.7358e+05,58.5
-74196,-2.7397e+05,58.5
-74503,-2.7281e+05,58.5
-72889,-2.7266e+05,60
-72075,-2.724e+05,60
-71206,-2.7229e+05,60
-70458,-2.7287e+05,60
-69799,-2.7309e+05,60
-69199,-2.7283e+05,60
-68303,-2.7311e+05,60
-67216,-2.7355e+05,60
-66114,-2.7344e+05,60
-65478,-2.7319e+05,60
-64995,-2.736e+05,60
-64750,-2.7351e+05,60
-64826,-2.733e+05,60
-65139,-2.7278e+05,60
-64478,-2.7262e+05,60
-64213,-2.7318e+05,60
-65038,-2.7271e+05,60
-64804,-2.7329e+05,60
-66176,-2.7267e+05,60
-66530,-2.7295e+05,60
-67836,-2.7293e+05,60
-67035,-2.729e+05,60
-67106,-2.729e+05,60
-68918,-2.7254e+05,60
-70023,-2.7294e+05,60
-72011,-2.7303e+05,60
-72427,-2.7303e+05,60
-74203,-2.7273e+05,60
-73576,-2.7308e+05,60
-74512,-2.7358e+05,60
-74196,-2.7397e+05,60
-74503,-2.7281e+05,60
-72889,-2.7266e+05,61
-72075,-2.724e+05,61
-71206,-2.7229e+05,61
-70458,-2.7287e+05,61
-69799,-2.7309e+05,61
-69199,-2.7283e+05,61
-68303,-2.7311e+05,61
-67216,-2.7355e+05,61
-66114,-2.7344e+05,61
-65478,-2.7319e+05,61
-64995,-2.736e+05,61
-64750,-2.7351e+05,61
-64826,-2.733e+05,61
-65139,-2.7278e+05,61
-64478,-2.7262e+05,61
-64213,-2.7318e+05,61
-65038,-2.7271e+05,61
-64804,-2.7329e+05,61
-66176,-2.7267e+05,61
-66530,-2.7295e+05,61
-67836,-2.7293e+05,61
-67035,-2.729e+05,61
-67106,-2.729e+05,61
-68918,-2.7254e+05,61
-70023,-2.7294e+05,61
-72011,-2.7303e+05,61
-72427,-2.7303e+05,61
-74203,-2.7273e+05,61
-73576,-2.7308e+05,61
-74512,-2.7358e+05,61
-74196,-2.7397e+05,61
-74503,-2.7281e+05,61
-74195,-2.7289e+05,61
-73826,-2.7275e+05,61
-74231,-2.7289e+05,61
-72466,-2.7256e+05,61
-71900,-2.7274e+05,61
-70131,-2.7273e+05,61
-69491,-2.7287e+05,61
-68674,-2.7221e+05,61
-66637,-2.7235e+05,61
-66160,-2.7268e+05,61
-64784,-2.7291e+05,61
-63944,-2.7302e+05,61
-64076,-2.7331e+05,61
-63838,-2.7333e+05,61
-62695,-2.7321e+05,61
-62640,-2.7321e+05,61
-63284,-2.7317e+05,61
-63853,-2.7355e+05,61
-64638,-2.7309e+05,61
-64908,-2.7396e+05,61
-65747,-2.7357e+05,61
-66833,-2.7405e+05,61
-67467,-2.7362e+05,61
-69079,-2.7295e+05,61
-71260,-2.7347e+05,61
-72217,-2.7328e+05,61
-73009,-2.7332e+05,61
-73919,-2.7336e+05,61
-75242,-2.7267e+05,61
-75196,-2.7306e+05,61
-75131,-2.7334e+05,61
-75381,-2.7242e+05,61
-72466,-2.7256e+05,62
-71900,-2.7274e+05,62
-70131,-2.7273e+05,62
-69491,-2.7287e+05,62
-68674,-2.7221e+05,62
-66637,-2.7235e+05,62
-66160,-2.7268e+05,62
-64784,-2.7291e+05,62
-63944,-2.7302e+05,62
-64076,-2.7331e+05,62
-63838,-2.7333e+05,62
-62695,-2.7321e+05,62
-62640,-2.7321e+05,62
-63284,-2.7317e+05,62
-63853,-2.7355e+05,62
-64638,-2.7309e+05,62
-64908,-2.7396e+05,62
-65747,-2.7357e+05,62
-66833,-2.7405e+05,62
-67467,-2.7362e+05,62
-69079,-2.7295e+05,62
-71260,-2.7347e+05,62
-72217,-2.7328e+05,62
-73009,-2.7332e+05,62
-73919,-2.7336e+05,62
-75242,-2.7267e+05,62
-75196,-2.7306e+05,62
-75131,-2.7334e+05,62
-75381,-2.7242e+05,62
-72466,-2.7256e+05,62
-71900,-2.7274e+05,62
-70131,-2.7273e+05,62
-69491,-2.7287e+05,62
-68674,-2.7221e+05,62
-66637,-2.7235e+05,62
-66160,-2.7268e+05,62
-64784,-2.7291e+05,62
-63944,-2.7302e+05,62
-64076,-2.7331e+05,62
-63838,-2.7333e+05,62
-62695,-2.7321e+05,62
-62640,-2.7321e+05,62
-63284,-2.7317e+05,62
-63853,-2.7355e+05,62
-64638,-2.7309e+05,62
-64908,-2.7396e+05,62
-65747,-2.7357e+05,62
-66833,-2.7405e+05,62
-67467,-2.7362e+05,62
-69079,-2.7295e+05,62
-71260,-2.7347e+05,62
-72217,-2.7328e+05,62
-73009,-2.7332e+05,62
-73919,-2.7336e+05,62
-75242,-2.7267e+05,62
-75196,-2.7306e+05,62
-75131,-2.7334e+05,62
-75381,-2.7242e+05,62
-75941,-2.7275e+05,62
-75216,-2.7253e+05,62
-74871,-2.7285e+05,62
-73961,-2.724e+05,62
-72771,-2.7254e+05,62
-72324,-2.7273e+05,62
-70955,-2.7277e+05,62
-70374,-2.7264e+05,62
-69302,-2.7325e+05,62
-68344,-2.728e+05,62
-67384,-2.7319e+05,62
-66393,-2.7324e+05,62
-65747,-2.731e+05,62
-64529,-2.7372e+05,62
-64019,-2.7294e+05,62
-64568,-2.734e+05,62
-64120,-2.7308e+05,62
-64061,-2.7383e+05,62
-63823,-2.736e+05,62
-65217,-2.7344e+05,62
-65374,-2.7363e+05,62
-65984,-2.7374e+05,62
-66687,-2.734e+05,62
-66396,-2.7306e+05,62
-66803,-2.7312e+05,62
-67350,-2.7333e+05,62
-68990,-2.7326e+05,62
-69928,-2.7318e+05,62
-70981,-2.7288e+05,62
-72642,-2.732e+05,62
-73426,-2.7267e+05,62
-73397,-2.723e+05,62
-74418,-2.7288e+05,62
-74794,-2.7245e+05,62
-74753,-2.7274e+05,62
-75106,-2.7318e+05,62
-74808,-2.7327e+05,62
-74605,-2.7297e+05,62
-73613,-2.733e+05,62
-72746,-2.7332e+05,62
-72034,-2.7296e+05,62
-72065,-2.7309e+05,62
-70496,-2.7356e+05,62
-69094,-2.7321e+05,62
-67455,-2.7388e+05,62
-67375,-2.7339e+05,62
-65552,-2.7355e+05,62
-65469,-2.7373e+05,62
-65770,-2.7417e+05,62
-64931,-2.7382e+05,62
-65157,-2.7354e+05,62
-64381,-2.7351e+05,62
-64546,-2.7278e+05,62
-64764,-2.7284e+05,62
-65889,-2.7257e+05,62
-66757,-2.7265e+05,62
-67960,-2.7303e+05,62
-68087,-2.7312e+05,62
-68760,-2.7255e+05,62
-69029,-2.7209e+05,62
-68696,-2.7208e+05,62
-69610,-2.7255e+05,62
-69575,-2.7247e+05,62
-70200,-2.7207e+05,62
-70559,-2.7302e+05,62
-70483,-2.7237e+05,62
-71211,-2.7214e+05,62
-70975,-2.7172e+05,62
-70230,-2.7187e+05,62
-70226,-2.7135e+05,62
-70128,-2.7179e+05,62
-68992,-2.7154e+05,62
-68293,-2.7185e+05,62
-68213,-2.7195e+05,62
-67391,-2.7163e+05,62
-67013,-2.7136e+05,62
-66027,-2.7186e+05,62
-64867,-2.7215e+05,62
-64551,-2.7316e+05,62
-64785,-2.7288e+05,62
-64865,-2.7331e+05,62
-65237,-2.7338e+05,62
-64441,-2.738e+05,62
-65095,-2.7383e+05,62
-64978,-2.7423e+05,62
-65367,-2.7397e+05,62
-65881,-2.7439e+05,62
-65807,-2.7429e+05,62
-67023,-2.7434e+05,62
-66686,-2.7435e+05,62
-67804,-2.7413e+05,62
-68681,-2.7337e+05,62
-69948,-2.7387e+05,62
-71476,-2.7343e+05,62
-71931,-2.738e+05,62
-72864,-2.7301e+05,62
-70559,-2.7302e+05,63
-70483,-2.7237e+05,63
-71211,-2.7214e+05,63
-70975,-2.7172e+05,63
-70230,-2.7187e+05,63
-70226,-2.7135e+05,63
-70128,-2.7179e+05,63
-68992,-2.7154e+05,63
-68293,-2.7185e+05,63
-68213,-2.7195e+05,63
-67391,-2.7163e+05,63
-67013,-2.7136e+05,63
-66027,-2.7186e+05,63
-64867,-2.7215e+05,63
-64551,-2.7316e+05,63
-64785,-2.7288e+05,63
-64865,-2.7331e+05,63
-65237,-2.7338e+05,63
-64441,-2.738e+05,63
-65095,-2.7383e+05,63
-64978,-2.7423e+05,63
-65367,-2.7397e+05,63
-65881,-2.7439e+05,63
-65807,-2.7429e+05,63
-67023,-2.7434e+05,63
-66686,-2.7435e+05,63
-67804,-2.7413e+05,63
-68681,-2.7337e+05,63
-69948,-2.7387e+05,63
-71476,-2.7343e+05,63
-71931,-2.738e+05,63
-72864,-2.7301e+05,63
-73733,-2.7284e+05,63
-73990,-2.73e+05,63
-73590,-2.7246e+05,63
-73950,-2.7259e+05,63
-73704,-2.7256e+05,63
-73650,-2.7244e+05,63
-73765,-2.7265e+05,63
-73355,-2.7286e+05,63
-73069,-2.7242e+05,63
-72015,-2.7293e+05,63
-70616,-2.7235e+05,63
-69413,-2.7292e+05,63
-68604,-2.7245e+05,63
-67526,-2.726e+05,63
-66139,-2.7291e+05,63
-65725,-2.7289e+05,63
-64981,-2.7282e+05,63
-64415,-2.7315e+05,63
-64288,-2.7275e+05,63
-64483,-2.7312e+05,63
-64860,-2.7274e+05,63
-65458,-2.7301e+05,63
-65419,-2.7308e+05,63
-66057,-2.7285e+05,63
-66701,-2.7293e+05,63
-67289,-2.729e+05,63
-68586,-2.726e+05,63
-69176,-2.7273e+05,63
-70318,-2.7238e+05,63
-71152,-2.7348e+05,63
-72837,-2.7289e+05,63
-73716,-2.7293e+05,63
-73733,-2.7284e+05,64
-73990,-2.73e+05,64
-73590,-2.7246e+05,64
-73950,-2.7259e+05,64
-73704,-2.7256e+05,64
-73650,-2.7244e+05,64
-73765,-2.7265e+05,64
-73355,-2.7286e+05,64
-73069,-2.7242e+05,64
-72015,-2.7293e+05,64
-70616,-2.7235e+05,64
-69413,-2.7292e+05,64
-68604,-2.7245e+05,64
-67526,-2.726e+05,64
-66139,-2.7291e+05,64
-65725,-2.7289e+05,64
-64981,-2.7282e+05,64
-64415,-2.7315e+05,64
-64288,-2.7275e+05,64
-64483,-2.7312e+05,64
-64860,-2.7274e+05,64
-65458,-2.7301e+05,64
-65419,-2.7308e+05,64
-66057,-2.7285e+05,64
-66701,-2.7293e+05,64
-67289,-2.729e+05,64
-68586,-2.726e+05,64
-69176,-2.7273e+05,64
-70318,-2.7238e+05,64
-71152,-2.7348e+05,64
-72837,-2.7289e+05,64
-73716,-2.7293e+05,64
-75035,-2.7261e+05,64
-75364,-2.7319e+05,64
-76682,-2.7317e+05,64
-76122,-2.7297e+05,64
-76677,-2.7287e+05,64
-76523,-2.7278e+05,64
-76189,-2.7211e+05,64
-74558,-2.7229e+05,64
-74829,-2.7215e+05,64
-73098,-2.7154e+05,64
-72048,-2.7194e+05,64
-71200,-2.7187e+05,64
-70525,-2.7186e+05,64
-69594,-2.7223e+05,64
-68774,-2.717e+05,64
-67743,-2.7205e+05,64
-66602,-2.724e+05,64
-65759,-2.72e+05,64
-65364,-2.7264e+05,64
-64972,-2.7218e+05,64
-64572,-2.7197e+05,64
-64126,-2.7183e+05,64
-64107,-2.7235e+05,64
-64506,-2.7215e+05,64
-64046,-2.7271e+05,64
-65016,-2.7222e+05,64
-65365,-2.7246e+05,64
-66327,-2.7277e+05,64
-67291,-2.7219e+05,64
-68016,-2.7212e+05,64
-69141,-2.7196e+05,64
-71221,-2.7245e+05,64
-75035,-2.7261e+05,64
-75364,-2.7319e+05,64
-76682,-2.7317e+05,64
-76122,-2.7297e+05,64
-76677,-2.7287e+05,64
-76523,-2.7278e+05,64
-76189,-2.7211e+05,64
-74558,-2.7229e+05,64
-74829,-2.7215e+05,64
-73098,-2.7154e+05,64
-72048,-2.7194e+05,64
-71200,-2.7187e+05,64
-70525,-2.7186e+05,64
-69594,-2.7223e+05,64
-68774,-2.717e+05,64
-67743,-2.7205e+05,64
-66602,-2.724e+05,64
-65759,-2.72e+05,64
-65364,-2.7264e+05,64
-64972,-2.7218e+05,64
-64572,-2.7197e+05,64
-64126,-2.7183e+05,64
-64107,-2.7235e+05,64
-64506,-2.7215e+05,64
-64046,-2.7271e+05,64
-65016,-2.7222e+05,64
-65365,-2.7246e+05,64
-66327,-2.7277e+05,64
-67291,-2.7219e+05,64
-68016,-2.7212e+05,64
-69141,-2.7196e+05,64
-71221,-2.7245e+05,64
-72436,-2.724e+05,64
-73588,-2.7302e+05,64
-74274,-2.7232e+05,64
-75095,-2.7224e+05,64
-75287,-2.7129e+05,64
-75904,-2.7227e+05,64
-75740,-2.7192e+05,64
-75182,-2.7158e+05,64
-75255,-2.7222e+05,64
-74891,-2.7182e+05,64
-74241,-2.7206e+05,64
-73206,-2.7175e+05,64
-72209,-2.7231e+05,64
-71122,-2.7191e+05,64
-70148,-2.7253e+05,64
-70128,-2.7225e+05,64
-68202,-2.719e+05,64
-67740,-2.7252e+05,64
-66599,-2.7201e+05,64
-65629,-2.7216e+05,64
-64867,-2.7225e+05,64
-65248,-2.7297e+05,64
-64533,-2.7288e+05,64
-64628,-2.7262e+05,64
-65575,-2.7271e+05,64
-65267,-2.7249e+05,64
-65861,-2.7295e+05,64
-66110,-2.7308e+05,64
-67835,-2.7284e+05,64
-68334,-2.7225e+05,64
-68201,-2.7231e+05,64
-68671,-2.7273e+05,64
-70173,-2.7304e+05,64
-70812,-2.7274e+05,64
-70351,-2.7258e+05,64
-70513,-2.718e+05,64
-71006,-2.7268e+05,64
-71874,-2.7195e+05,64
-72575,-2.7207e+05,64
-73142,-2.7223e+05,64
-73545,-2.7207e+05,64
-73172,-2.7179e+05,64
-73352,-2.7165e+05,64
-73210,-2.7227e+05,64
-72819,-2.7167e+05,64
-71544,-2.7212e+05,64
-70548,-2.7208e+05,64
-69629,-2.7251e+05,64
-68469,-2.7251e+05,64
-67166,-2.7217e+05,64
-67376,-2.7213e+05,64
-66732,-2.7249e+05,64
-65341,-2.7208e+05,64
-64285,-2.7215e+05,64
-64377,-2.7239e+05,64
-63880,-2.7215e+05,64
-64348,-2.7202e+05,64
-64319,-2.7267e+05,64
-64695,-2.7235e+05,64
-64586,-2.726e+05,64
-64884,-2.7254e+05,64
-65830,-2.7255e+05,64
-66922,-2.7258e+05,64
-68337,-2.7286e+05,64
-68103,-2.7244e+05,64
-67430,-2.7225e+05,64
-69973,-2.7328e+05,64
-70752,-2.7275e+05,64
-71170,-2.7334e+05,64
-71847,-2.7354e+05,64
-72699,-2.7339e+05,64
-73781,-2.7303e+05,64
-74133,-2.7326e+05,64
-74312,-2.728e+05,64
-73495,-2.7212e+05,64
-73526,-2.7193e+05,64
-72961,-2.7186e+05,64
-72156,-2.7105e+05,64
-71221,-2.7158e+05,64
-70405,-2.71e+05,64
-70223,-2.7157e+05,64
-69855,-2.7187e+05,64
-69655,-2.7144e+05,64
-68950,-2.7215e+05,64
-68095,-2.7193e+05,64
-67535,-2.7226e+05,64
-66513,-2.719e+05,64
-66391,-2.714e+05,64
-65918,-2.7197e+05,64
-65670,-2.7197e+05,64
-66163,-2.7168e+05,64
-66186,-2.7206e+05,64
-66452,-2.722e+05,64
-66480,-2.7207e+05,64
-66698,-2.7225e+05,64
-67348,-2.7254e+05,64
-68066,-2.727e+05,64
-68970,-2.7281e+05,64
-69462,-2.7216e+05,64
-70640,-2.7223e+05,64
-72239,-2.7227e+05,64
-73350,-2.724e+05,64
-74172,-2.7265e+05,64
-75079,-2.7235e+05,64
-75492,-2.7268e+05,64
-74962,-2.729e+05,64
-75302,-2.7221e+05,64
-75800,-2.724e+05,64
-75015,-2.7257e+05,64
-75199,-2.7248e+05,64
-74528,-2.7218e+05,64
-73828,-2.7288e+05,64
-73133,-2.7233e+05,64
-71945,-2.7214e+05,64
-70362,-2.72e+05,64
-69238,-2.7241e+05,64
-68165,-2.7204e+05,64
-67804,-2.7185e+05,64
-66931,-2.7168e+05,64
-66569,-2.7161e+05,64
-65893,-2.723e+05,64
-65675,-2.7142e+05,64
-65241,-2.723e+05,64
-65382,-2.7186e+05,64
-64193,-2.7172e+05,64
-64303,-2.7128e+05,64
-64513,-2.7212e+05,64
-65034,-2.7217e+05,64
-65199,-2.7183e+05,64
-65741,-2.7192e+05,64
-66434,-2.7179e+05,64
-67390,-2.7172e+05,64
-68430,-2.7217e+05,64
-69525,-2.7216e+05,64
-70382,-2.7235e+05,64
-70942,-2.7205e+05,64
-71669,-2.7165e+05,64
-72476,-2.7217e+05,64
-72307,-2.7202e+05,64
-73631,-2.726e+05,64
-74819,-2.7329e+05,64
-74791,-2.7275e+05,64
-74293,-2.7278e+05,64
-74285,-2.7303e+05,64
-74005,-2.7303e+05,64
-73397,-2.7287e+05,64
-72991,-2.7229e+05,64
-72292,-2.7308e+05,64
-72092,-2.7244e+05,64
-70691,-2.722e+05,64
-69576,-2.7275e+05,64
-68143,-2.7257e+05,64
-66757,-2.7235e+05,64
-65671,-2.7218e+05,64
-65589,-2.7223e+05,64
-65412,-2.7271e+05,64
-64253,-2.7255e+05,64
-64866,-2.7228e+05,64
-64738,-2.7246e+05,64
-65453,-2.7254e+05,64
-65199,-2.7183e+05,65
-65741,-2.7192e+05,65
-66434,-2.7179e+05,65
-67390,-2.7172e+05,65
-68430,-2.7217e+05,65
-69525,-2.7216e+05,65
-70382,-2.7235e+05,65
-70942,-2.7205e+05,65
-71669,-2.7165e+05,65
-72476,-2.7217e+05,65
-72307,-2.7202e+05,65
-73631,-2.726e+05,65
-74819,-2.7329e+05,65
-74791,-2.7275e+05,65
-74293,-2.7278e+05,65
-74285,-2.7303e+05,65
-74005,-2.7303e+05,65
-73397,-2.7287e+05,65
-72991,-2.7229e+05,65
-72292,-2.7308e+05,65
-72092,-2.7244e+05,65
-70691,-2.722e+05,65
-69576,-2.7275e+05,65
-68143,-2.7257e+05,65
-66757,-2.7235e+05,65
-65671,-2.7218e+05,65
-65589,-2.7223e+05,65
-65412,-2.7271e+05,65
-64253,-2.7255e+05,65
-64866,-2.7228e+05,65
-64738,-2.7246e+05,65
-65453,-2.7254e+05,65
-65199,-2.7183e+05,65
-65741,-2.7192e+05,65
-66434,-2.7179e+05,65
-67390,-2.7172e+05,65
-68430,-2.7217e+05,65
-69525,-2.7216e+05,65
-70382,-2.7235e+05,65
-70942,-2.7205e+05,65
-71669,-2.7165e+05,65
-72476,-2.7217e+05,65
-72307,-2.7202e+05,65
-73631,-2.726e+05,65
-74819,-2.7329e+05,65
-74791,-2.7275e+05,65
-74293,-2.7278e+05,65
-74285,-2.7303e+05,65
-74005,-2.7303e+05,65
-73397,-2.7287e+05,65
-72991,-2.7229e+05,65
-72292,-2.7308e+05,65
-72092,-2.7244e+05,65
-70691,-2.722e+05,65
-69576,-2.7275e+05,65
-68143,-2.7257e+05,65
-66757,-2.7235e+05,65
-65671,-2.7218e+05,65
-65589,-2.7223e+05,65
-65412,-2.7271e+05,65
-64253,-2.7255e+05,65
-64866,-2.7228e+05,65
-64738,-2.7246e+05,65
-65453,-2.7254e+05,65
-65960,-2.7274e+05,65
-66655,-2.7284e+05,65
-67334,-2.7248e+05,65
-68166,-2.7278e+05,65
-68726,-2.7267e+05,65
-69398,-2.7259e+05,65
-71139,-2.7298e+05,65
-71654,-2.7316e+05,65
-71812,-2.7239e+05,65
-72675,-2.7214e+05,65
-73588,-2.7242e+05,65
-73572,-2.7158e+05,65
-73903,-2.7204e+05,65
-73638,-2.7165e+05,65
-72933,-2.71e+05,65
-72694,-2.718e+05,65
-72282,-2.7184e+05,65
-71984,-2.71e+05,65
-71593,-2.7161e+05,65
-70643,-2.72e+05,65
-70326,-2.7187e+05,65
-69053,-2.7171e+05,65
-68969,-2.7145e+05,65
-68306,-2.7206e+05,65
-67607,-2.7191e+05,65
-67115,-2.7211e+05,65
-66635,-2.7176e+05,65
-65340,-2.7238e+05,65
-65459,-2.7256e+05,65
-64749,-2.715e+05,65
-64429,-2.7177e+05,65
-63907,-2.7212e+05,65
-64699,-2.7231e+05,65
-65221,-2.722e+05,65
-66005,-2.7234e+05,65
-66000,-2.7251e+05,65
-67054,-2.7232e+05,65
-68717,-2.7249e+05,65
-68882,-2.7256e+05,65
-70951,-2.7314e+05,65
-72249,-2.7282e+05,65
-73223,-2.7239e+05,65
-74344,-2.7289e+05,65
-75248,-2.7249e+05,65
-74892,-2.7208e+05,65
-74965,-2.7224e+05,65
-74585,-2.7194e+05,65
-74357,-2.7201e+05,65
-74928,-2.7207e+05,65
-74205,-2.722e+05,65
-74472,-2.723e+05,65
-73301,-2.7247e+05,65
-72763,-2.7182e+05,65
-71947,-2.7222e+05,65
-70976,-2.7217e+05,65
-71063,-2.7235e+05,65
-68771,-2.7282e+05,65
-68386,-2.7243e+05,65
-67058,-2.7241e+05,65
-66235,-2.7205e+05,65
-65518,-2.7214e+05,65
-64646,-2.717e+05,65
-64265,-2.712e+05,65
-63072,-2.7104e+05,65
-63476,-2.715e+05,65
-63871,-2.7169e+05,65
-64633,-2.7161e+05,65
-65191,-2.7202e+05,65
-65216,-2.7241e+05,65
-65953,-2.719e+05,65
-67232,-2.7248e+05,65
-68058,-2.7217e+05,65
-68323,-2.7249e+05,65
-70794,-2.7224e+05,65
-71536,-2.7238e+05,65
-72692,-2.7171e+05,65
-74444,-2.7249e+05,65
-75266,-2.7277e+05,65
-75518,-2.7229e+05,65
-75927,-2.7206e+05,65
-75944,-2.7182e+05,65
-74819,-2.7193e+05,65
-74731,-2.7169e+05,65
-74393,-2.722e+05,65
-73530,-2.7213e+05,65
-72907,-2.7239e+05,65
-72097,-2.7204e+05,65
-71825,-2.7209e+05,65
-71363,-2.7222e+05,65
-70150,-2.7224e+05,65
-68874,-2.7252e+05,65
-67483,-2.7296e+05,65
-67174,-2.7259e+05,65
-66238,-2.7303e+05,65
-65919,-2.7336e+05,65
-66482,-2.7341e+05,65
-63476,-2.715e+05,66
-63871,-2.7169e+05,66
-64633,-2.7161e+05,66
-65191,-2.7202e+05,66
-65216,-2.7241e+05,66
-65953,-2.719e+05,66
-67232,-2.7248e+05,66
-68058,-2.7217e+05,66
-68323,-2.7249e+05,66
-70794,-2.7224e+05,66
-71536,-2.7238e+05,66
-72692,-2.7171e+05,66
-74444,-2.7249e+05,66
-75266,-2.7277e+05,66
-75518,-2.7229e+05,66
-75927,-2.7206e+05,66
-75944,-2.7182e+05,66
-74819,-2.7193e+05,66
-74731,-2.7169e+05,66
-74393,-2.722e+05,66
-73530,-2.7213e+05,66
-72907,-2.7239e+05,66
-72097,-2.7204e+05,66
-71825,-2.7209e+05,66
-71363,-2.7222e+05,66
-70150,-2.7224e+05,66
-68874,-2.7252e+05,66
-67483,-2.7296e+05,66
-67174,-2.7259e+05,66
-66238,-2.7303e+05,66
-65919,-2.7336e+05,66
-66482,-2.7341e+05,66
-65983,-2.7295e+05,66
-65608,-2.7281e+05,66
-65821,-2.7325e+05,66
-65965,-2.7252e+05,66
-67178,-2.7248e+05,66
-68254,-2.7317e+05,66
-69382,-2.7346e+05,66
-69998,-2.7291e+05,66
-70099,-2.7315e+05,66
-71193,-2.7255e+05,66
-71891,-2.7276e+05,66
-72027,-2.7263e+05,66
-74101,-2.722e+05,66
-74256,-2.7312e+05,66
-75665,-2.7243e+05,66
-75861,-2.7263e+05,66
-76317,-2.7195e+05,66
-76407,-2.7187e+05,66
-76219,-2.7216e+05,66
-75129,-2.7172e+05,66
-74215,-2.715e+05,66
-72761,-2.7132e+05,66
-71710,-2.713e+05,66
-70615,-2.7142e+05,66
-70244,-2.7152e+05,66
-68611,-2.717e+05,66
-68229,-2.7144e+05,66
-66863,-2.7219e+05,66
-66116,-2.7181e+05,66
-65638,-2.7162e+05,66
-64399,-2.7218e+05,66
-64139,-2.7268e+05,66
-63801,-2.7274e+05,66
-63994,-2.7267e+05,66
-64559,-2.7205e+05,66
-64703,-2.7253e+05,66
-65597,-2.7273e+05,66
-65347,-2.7223e+05,66
-66470,-2.7255e+05,66
-67466,-2.7239e+05,66
-69296,-2.7273e+05,66
-69151,-2.7211e+05,66
-69771,-2.7277e+05,66
-69825,-2.7313e+05,66
-71363,-2.7218e+05,66
-72556,-2.7291e+05,66
-72494,-2.7253e+05,66
-74118,-2.7266e+05,66
-73800,-2.7239e+05,66
-74613,-2.7233e+05,66
-74849,-2.7208e+05,66
-74485,-2.7244e+05,66
-73746,-2.7202e+05,66
-74552,-2.7207e+05,66
-73309,-2.7234e+05,66
-73328,-2.7188e+05,66
-72384,-2.7159e+05,66
-70457,-2.7177e+05,66
-69927,-2.7168e+05,66
-68213,-2.7116e+05,66
-66642,-2.7152e+05,66
-65875,-2.7174e+05,66
-65301,-2.7124e+05,66
-64359,-2.711e+05,66
-63801,-2.7274e+05,67
-63994,-2.7267e+05,67
-64559,-2.7205e+05,67
-64703,-2.7253e+05,67
-65597,-2.7273e+05,67
-65347,-2.7223e+05,67
-66470,-2.7255e+05,67
-67466,-2.7239e+05,67
-69296,-2.7273e+05,67
-69151,-2.7211e+05,67
-69771,-2.7277e+05,67
-69825,-2.7313e+05,67
-71363,-2.7218e+05,67
-72556,-2.7291e+05,67
-72494,-2.7253e+05,67
-74118,-2.7266e+05,67
-73800,-2.7239e+05,67
-74613,-2.7233e+05,67
-74849,-2.7208e+05,67
-74485,-2.7244e+05,67
-73746,-2.7202e+05,67
-74552,-2.7207e+05,67
-73309,-2.7234e+05,67
-73328,-2.7188e+05,67
-72384,-2.7159e+05,67
-70457,-2.7177e+05,67
-69927,-2.7168e+05,67
-68213,-2.7116e+05,67
-66642,-2.7152e+05,67
-65875,-2.7174e+05,67
-65301,-2.7124e+05,67
-64359,-2.711e+05,67
-63593,-2.7163e+05,67
-64509,-2.7185e+05,67
-64461,-2.7194e+05,67
-65220,-2.7194e+05,67
-65379,-2.7208e+05,67
-65911,-2.7151e+05,67
-66763,-2.7226e+05,67
-67078,-2.7234e+05,67
-67913,-2.7224e+05,67
-69360,-2.7271e+05,67
-69751,-2.719e+05,67
-71300,-2.7192e+05,67
-71760,-2.7182e+05,67
-73762,-2.7253e+05,67
-74478,-2.7287e+05,67
-74717,-2.7258e+05,67
-75656,-2.725e+05,67
-76045,-2.733e+05,67
-76035,-2.7291e+05,67
-76445,-2.728e+05,67
-75999,-2.7257e+05,67
-75676,-2.7301e+05,67
-76043,-2.7324e+05,67
-75131,-2.7316e+05,67
-75132,-2.7258e+05,67
-73324,-2.73e+05,67
-72870,-2.7256e+05,67
-71604,-2.7206e+05,67
-70344,-2.719e+05,67
-68869,-2.7227e+05,67
-67257,-2.7182e+05,67
-66093,-2.7177e+05,67
-65585,-2.7157e+05,67
-63933,-2.7149e+05,67
-64051,-2.7142e+05,67
-64157,-2.7199e+05,67
-63701,-2.7228e+05,67
-64669,-2.7226e+05,67
-64301,-2.7209e+05,67
-64870,-2.7235e+05,67
-66389,-2.7251e+05,67
-67324,-2.7297e+05,67
-67765,-2.7253e+05,67
-69200,-2.7227e+05,67
-69850,-2.7246e+05,67
-70687,-2.7228e+05,67
-73603,-2.7252e+05,67
-73695,-2.7223e+05,67
-73878,-2.7198e+05,67
-74621,-2.7238e+05,67
-76047,-2.7181e+05,67
-76057,-2.7231e+05,67
-75882,-2.7228e+05,67
-76383,-2.7194e+05,67
-76517,-2.7217e+05,67
-75721,-2.7215e+05,67
-75897,-2.722e+05,67
-75015,-2.7094e+05,67
-74695,-2.7214e+05,67
-72795,-2.724e+05,67
-71965,-2.7142e+05,67
-69947,-2.714e+05,67
-69369,-2.7101e+05,67
-67668,-2.7103e+05,67
-67368,-2.7189e+05,67
-66720,-2.7128e+05,67
-65375,-2.7199e+05,67
-65093,-2.7187e+05,67
-65152,-2.7233e+05,67
-65140,-2.7196e+05,67
-64918,-2.7248e+05,67
-65574,-2.7224e+05,67
-66252,-2.7284e+05,67
-66689,-2.7254e+05,67
-67075,-2.727e+05,67
-68255,-2.7289e+05,67
-69194,-2.7286e+05,67
-69900,-2.7274e+05,67
-71235,-2.7271e+05,67
-72085,-2.7315e+05,67
-73977,-2.7276e+05,67
-74490,-2.729e+05,67
-75210,-2.7281e+05,67
-76517,-2.7244e+05,67
-76311,-2.7173e+05,67
-76305,-2.7213e+05,67
-76571,-2.7226e+05,67
-76169,-2.721e+05,67
-75789,-2.7169e+05,67
-75012,-2.7155e+05,67
-74302,-2.7177e+05,67
-73866,-2.7101e+05,67
-72204,-2.7128e+05,67
-71271,-2.7147e+05,67
-70322,-2.7145e+05,67
-69688,-2.7139e+05,67
-68477,-2.7163e+05,67
-67426,-2.7105e+05,67
-66500,-2.7143e+05,67
-65840,-2.7153e+05,67
-64643,-2.7192e+05,67
-64688,-2.7199e+05,67
-65169,-2.7195e+05,67
-64250,-2.7217e+05,67
-64914,-2.7217e+05,67
-65798,-2.7277e+05,67
-66979,-2.7278e+05,67
-67542,-2.7236e+05,67
-68097,-2.728e+05,67
-68730,-2.7247e+05,67
-69360,-2.7291e+05,67
-69991,-2.7223e+05,67
-70970,-2.7283e+05,67
-71990,-2.7272e+05,67
-72368,-2.7197e+05,67
-73397,-2.7199e+05,67
-74187,-2.7265e+05,67
-75535,-2.7246e+05,67
-76177,-2.7212e+05,67
-75756,-2.7215e+05,67
-76472,-2.7198e+05,67
-75590,-2.7105e+05,67
-75052,-2.7106e+05,67
-73727,-2.7099e+05,67
-72834,-2.7071e+05,67
-71833,-2.7067e+05,67
-71153,-2.7038e+05,67
-70410,-2.7058e+05,67
-69748,-2.7087e+05,67
-68688,-2.7048e+05,67
-66893,-2.7083e+05,67
-66126,-2.7088e+05,67
-64929,-2.7104e+05,67
-64952,-2.7114e+05,67
-64659,-2.7068e+05,67
-64607,-2.7135e+05,67
-64033,-2.7138e+05,67
-64957,-2.713e+05,67
-63716,-2.7179e+05,67
-65113,-2.7131e+05,67
-65800,-2.7196e+05,67
-66063,-2.7203e+05,67
-67247,-2.7184e+05,67
-67969,-2.7255e+05,67
-69022,-2.7264e+05,67
-69388,-2.7241e+05,67
-71609,-2.7247e+05,67
-72503,-2.7271e+05,67
-73478,-2.7244e+05,67
-74128,-2.7252e+05,67
-75348,-2.7239e+05,67
-75839,-2.7216e+05,67
-75751,-2.721e+05,67
-76144,-2.7228e+05,67
-76083,-2.7197e+05,67
-75709,-2.7187e+05,67
-75485,-2.7151e+05,67
-75332,-2.7158e+05,67
-74692,-2.7169e+05,67
-74039,-2.7191e+05,67
-73464,-2.7138e+05,67
-73557,-2.7175e+05,67
-72023,-2.7163e+05,67
-70556,-2.7133e+05,67
-69205,-2.7152e+05,67
-68846,-2.7154e+05,67
-67610,-2.7178e+05,67
-66561,-2.7167e+05,67
-66244,-2.7192e+05,67
-64917,-2.7139e+05,67
-64801,-2.7183e+05,67
-64567,-2.7165e+05,67
-65861,-2.7278e+05,67
-67637,-2.726e+05,67
-68114,-2.7325e+05,67
-68924,-2.728e+05,67
-69519,-2.7272e+05,67
-70214,-2.7287e+05,67
-70053,-2.73e+05,67
-71642,-2.7329e+05,67
-73711,-2.728e+05,67
-75074,-2.7298e+05,67
-75540,-2.7258e+05,67
-77067,-2.7192e+05,67
-76701,-2.7286e+05,67
-76817,-2.73e+05,67
-77222,-2.7219e+05,67
-76475,-2.7258e+05,67
-76697,-2.7223e+05,67
-76106,-2.7215e+05,67
-76016,-2.7237e+05,67
-75688,-2.7213e+05,67
-74693,-2.7208e+05,67
-74317,-2.7269e+05,67
-73203,-2.7289e+05,67
-72404,-2.724e+05,67
-70526,-2.7246e+05,67
-69766,-2.7162e+05,67
-68637,-2.7228e+05,67
-67315,-2.719e+05,67
-66187,-2.7218e+05,67
-65681,-2.7232e+05,67
-66259,-2.7196e+05,67
-65549,-2.7166e+05,67
-65724,-2.719e+05,67
-65782,-2.718e+05,67
-65532,-2.7145e+05,67
-65895,-2.7177e+05,67
-66893,-2.7192e+05,67
-67863,-2.7208e+05,67
-69542,-2.7192e+05,67
-69052,-2.7206e+05,67
-70149,-2.7219e+05,67
-72536,-2.7193e+05,67
-73327,-2.7178e+05,67
-74375,-2.7186e+05,67
-75622,-2.7129e+05,67
-76548,-2.7165e+05,67
-76317,-2.7165e+05,67
-76797,-2.7236e+05,67
-77055,-2.7201e+05,67
-76968,-2.7161e+05,67
-77242,-2.7165e+05,67
-76368,-2.719e+05,67
-75753,-2.7195e+05,67
-74086,-2.717e+05,67
-73148,-2.7197e+05,67
-71714,-2.7236e+05,67
-70721,-2.7183e+05,67
-69687,-2.7189e+05,67
-68256,-2.7128e+05,67
-67567,-2.7147e+05,67
-66557,-2.7179e+05,67
-65227,-2.7148e+05,67
-65868,-2.7186e+05,67
-65472,-2.725e+05,67
-65496,-2.7261e+05,67
-66213,-2.7269e+05,67
-66857,-2.724e+05,67
-66440,-2.7297e+05,67
-66965,-2.7242e+05,67
-67629,-2.7299e+05,67
-67925,-2.7249e+05,67
-68487,-2.7203e+05,67
-69392,-2.7198e+05,67
-70758,-2.7274e+05,67
-72251,-2.7213e+05,67
-73935,-2.7206e+05,67
-74969,-2.7249e+05,67
-75580,-2.7227e+05,67
-76893,-2.719e+05,67
-76849,-2.7234e+05,67
-75501,-2.716e+05,67
-75660,-2.7199e+05,67
-74969,-2.7201e+05,67
-75429,-2.7148e+05,67
-74650,-2.719e+05,67
-73930,-2.7186e+05,67
-73232,-2.7168e+05,67
-72243,-2.7184e+05,67
-70935,-2.7102e+05,67
-70520,-2.7138e+05,67
-69869,-2.7127e+05,67
-67916,-2.7143e+05,67
-67611,-2.7164e+05,67
-67273,-2.7097e+05,67
-67229,-2.7113e+05,67
-66463,-2.7104e+05,67
-66012,-2.7119e+05,67
-66674,-2.7137e+05,67
-66655,-2.7171e+05,67
-67013,-2.7168e+05,67
-67092,-2.7168e+05,67
-67655,-2.7189e+05,67
-68266,-2.7212e+05,67
-69049,-2.7256e+05,67
-69560,-2.7195e+05,67
-70169,-2.7165e+05,67
-70617,-2.7202e+05,67
-71728,-2.7196e+05,67
-73527,-2.7274e+05,67
-74547,-2.7297e+05,67
-75484,-2.7263e+05,67
-76839,-2.73e+05,67
-77946,-2.7311e+05,67
-78268,-2.7248e+05,67
-78549,-2.7275e+05,67
-77944,-2.7213e+05,67
-78268,-2.7208e+05,67
-77968,-2.7252e+05,67
-77389,-2.728e+05,67
-77229,-2.7176e+05,67
-76135,-2.7256e+05,67
-74550,-2.7251e+05,67
-73929,-2.7268e+05,67
-72200,-2.7214e+05,67
-70885,-2.7153e+05,67
-69160,-2.722e+05,67
-68468,-2.7249e+05,67
-67368,-2.7153e+05,67
-65639,-2.7181e+05,67
-65646,-2.7221e+05,67
-64109,-2.725e+05,67
-64523,-2.7207e+05,67
-64207,-2.7257e+05,67
-64131,-2.7282e+05,67
-64368,-2.7205e+05,67
-64606,-2.7254e+05,67
-65690,-2.7253e+05,67
-67176,-2.7287e+05,67
-67878,-2.725e+05,67
-68509,-2.7266e+05,67
-70158,-2.7268e+05,67
-71079,-2.7291e+05,67
-72571,-2.726e+05,67
-73414,-2.7329e+05,67
-73289,-2.7315e+05,67
-74502,-2.7274e+05,67
-74395,-2.7278e+05,67
-75502,-2.7319e+05,67
-75961,-2.7279e+05,67
-76682,-2.7323e+05,67
-76162,-2.7304e+05,67
-76620,-2.7403e+05,67
-76431,-2.7322e+05,67
-75905,-2.7279e+05,67
-74509,-2.7271e+05,67
-73998,-2.7293e+05,67
-72734,-2.7213e+05,67
-72153,-2.7268e+05,67
-70664,-2.7227e+05,67
-69571,-2.7211e+05,67
-68786,-2.7217e+05,67
-67418,-2.7257e+05,67
-67420,-2.722e+05,67
-67364,-2.7255e+05,67
-66702,-2.7215e+05,67
-67196,-2.7217e+05,67
-67371,-2.7236e+05,67
-68202,-2.7248e+05,67
-68473,-2.7286e+05,67
-69706,-2.7345e+05,67
-71122,-2.7291e+05,67
-71936,-2.7339e+05,67
-71960,-2.7249e+05,67
-72727,-2.7294e+05,67
-74094,-2.7355e+05,67
-75341,-2.7298e+05,67
-76242,-2.7299e+05,67
-76725,-2.7297e+05,67
-78151,-2.7336e+05,67
-77953,-2.73e+05,67
-78604,-2.7314e+05,67
-78713,-2.7346e+05,67
-78337,-2.7302e+05,67
-77731,-2.731e+05,67
-77585,-2.7302e+05,67
-76974,-2.7252e+05,67
-75929,-2.723e+05,67
-74969,-2.721e+05,67
-73951,-2.7199e+05,67
-72941,-2.7186e+05,67
-71792,-2.7154e+05,67
-69780,-2.7171e+05,67
-68565,-2.7139e+05,67
-67516,-2.7163e+05,67
-66788,-2.7167e+05,67
-65883,-2.712e+05,67
-65344,-2.7199e+05,67
-64820,-2.717e+05,67
-64218,-2.7202e+05,67
-64665,-2.7199e+05,67
-64638,-2.7226e+05,67
-65495,-2.7265e+05,67
-66199,-2.7225e+05,67
-66770,-2.7274e+05,67
-68701,-2.7266e+05,67
-70013,-2.719e+05,67
-70944,-2.7242e+05,67
-71318,-2.7311e+05,67
-72528,-2.7303e+05,67
-73413,-2.7312e+05,67
-74727,-2.7353e+05,67
-75637,-2.7366e+05,67
-76288,-2.7341e+05,67
-77696,-2.73e+05,67
-77931,-2.7272e+05,67
-77766,-2.7287e+05,67
-78016,-2.7274e+05,67
-77931,-2.7293e+05,67
-77378,-2.7279e+05,67
-76765,-2.719e+05,67
-76101,-2.7114e+05,67
-74832,-2.7191e+05,67
-73924,-2.7215e+05,67
-73312,-2.7158e+05,67
-71826,-2.7159e+05,67
-70652,-2.717e+05,67
-69792,-2.7151e+05,67
-69034,-2.7185e+05,67
-66988,-2.7167e+05,67
-66480,-2.7172e+05,67
-66658,-2.7129e+05,67
-65510,-2.7176e+05,67
-65588,-2.7186e+05,67
-65666,-2.7135e+05,67
-65070,-2.7088e+05,67
-65407,-2.717e+05,67
-66523,-2.7209e+05,67
-67037,-2.7189e+05,67
-68352,-2.7238e+05,67
-69662,-2.723e+05,67
-70862,-2.7237e+05,67
-72658,-2.7259e+05,67
-73736,-2.7256e+05,67
-75043,-2.7274e+05,67
-75955,-2.7255e+05,67
-77760,-2.7235e+05,67
-77619,-2.7199e+05,67
-77266,-2.7234e+05,67
-77610,-2.7209e+05,67
-77587,-2.7117e+05,67
-76970,-2.7128e+05,67
-76960,-2.7134e+05,67
-76167,-2.7122e+05,67
-75220,-2.7103e+05,67
-74147,-2.7057e+05,67
-73435,-2.7053e+05,67
-72657,-2.702e+05,67
-71414,-2.7038e+05,67
-69694,-2.702e+05,67
-69156,-2.7029e+05,67
-67916,-2.7056e+05,67
-67036,-2.7039e+05,67
-66637,-2.7029e+05,67
-66607,-2.7118e+05,67
-67162,-2.713e+05,67
-66745,-2.7074e+05,67
-66893,-2.7155e+05,67
-66907,-2.7143e+05,67
-67344,-2.7069e+05,67
-68199,-2.7182e+05,67
-69976,-2.714e+05,67
-70268,-2.7161e+05,67
-71038,-2.7132e+05,67
-71689,-2.7132e+05,67
-72894,-2.7204e+05,67
-74628,-2.7182e+05,67
-74980,-2.7165e+05,67
-75562,-2.7123e+05,67
-76274,-2.7213e+05,67
-76211,-2.7135e+05,67
-75742,-2.7093e+05,67
-75065,-2.7134e+05,67
-74766,-2.7118e+05,67
-74292,-2.7144e+05,67
-73844,-2.7119e+05,67
-73841,-2.712e+05,67
-73428,-2.716e+05,67
-71671,-2.707e+05,67
-70429,-2.7073e+05,67
-69627,-2.7097e+05,67
-68444,-2.7033e+05,67
-66462,-2.7014e+05,67
-66452,-2.7013e+05,67
-66547,-2.71e+05,67
-67112,-2.7095e+05,67
-66552,-2.7079e+05,67
-67127,-2.7091e+05,67
-68540,-2.7187e+05,67
-68667,-2.7185e+05,67
-68992,-2.7219e+05,67
-69428,-2.7263e+05,67
-70675,-2.7233e+05,67
-70655,-2.7232e+05,67
-70689,-2.7205e+05,67
-71517,-2.7202e+05,67
-71965,-2.7252e+05,67
-72216,-2.7256e+05,67
-72712,-2.7255e+05,67
-73641,-2.7242e+05,67
-74739,-2.7243e+05,67
-75113,-2.7244e+05,67
-76468,-2.724e+05,67
-76150,-2.725e+05,67
-76792,-2.7191e+05,67
-77051,-2.7207e+05,67
-77316,-2.718e+05,67
-77271,-2.7169e+05,67
-76682,-2.7214e+05,67
-76627,-2.7171e+05,67
-76283,-2.7194e+05,67
-75277,-2.7198e+05,67
-74369,-2.7164e+05,67
-73414,-2.7153e+05,67
-72964,-2.713e+05,67
-71755,-2.7078e+05,67
-70345,-2.7172e+05,67
-69816,-2.7126e+05,67
-68694,-2.7072e+05,67
-67728,-2.7137e+05,67
-67681,-2.7159e+05,67
-66937,-2.7141e+05,67
-66437,-2.7156e+05,67
-66367,-2.7118e+05,67
-67028,-2.715e+05,67
-67991,-2.7223e+05,67
-68065,-2.7227e+05,67
-69445,-2.7233e+05,67
-70257,-2.7218e+05,67
-71036,-2.7211e+05,67
-71391,-2.7169e+05,67
-73641,-2.7242e+05,67
-74739,-2.7243e+05,67
-75113,-2.7244e+05,67
-76468,-2.724e+05,67
-76150,-2.725e+05,67
-76792,-2.7191e+05,67
-77051,-2.7207e+05,67
-77316,-2.718e+05,67
-77271,-2.7169e+05,67
-76682,-2.7214e+05,67
-76627,-2.7171e+05,67
-76283,-2.7194e+05,67
-75277,-2.7198e+05,67
-74369,-2.7164e+05,67
-73414,-2.7153e+05,67
-72964,-2.713e+05,67
-71755,-2.7078e+05,67
-70345,-2.7172e+05,67
-69816,-2.7126e+05,67
-68694,-2.7072e+05,67
-67728,-2.7137e+05,67
-67681,-2.7159e+05,67
-66937,-2.7141e+05,67
-66437,-2.7156e+05,67
-66367,-2.7118e+05,67
-67028,-2.715e+05,67
-67991,-2.7223e+05,67
-68065,-2.7227e+05,67
-69445,-2.7233e+05,67
-70257,-2.7218e+05,67
-71036,-2.7211e+05,67
-71391,-2.7169e+05,67
-72421,-2.7185e+05,67
-73872,-2.7227e+05,67
-75299,-2.7245e+05,67
-76524,-2.724e+05,67
-77559,-2.7241e+05,67
-77904,-2.7252e+05,67
-78119,-2.7213e+05,67
-78107,-2.7249e+05,67
-78144,-2.7279e+05,67
-78115,-2.7211e+05,67
-78051,-2.7174e+05,67
-77292,-2.714e+05,67
-76737,-2.7131e+05,67
-75484,-2.7123e+05,67
-74720,-2.7168e+05,67
-73659,-2.7125e+05,67
-72922,-2.7134e+05,67
-72451,-2.7119e+05,67
-70230,-2.7148e+05,67
-69728,-2.7133e+05,67
-68816,-2.7118e+05,67
-67722,-2.7131e+05,67
-67128,-2.7149e+05,67
-67282,-2.7151e+05,67
-66612,-2.7104e+05,67
-66676,-2.7167e+05,67
-66485,-2.7154e+05,67
-66630,-2.7121e+05,67
-67392,-2.716e+05,67
-68339,-2.7164e+05,67
-68755,-2.7152e+05,67
-70329,-2.7222e+05,67
-72421,-2.7185e+05,69.571
-73872,-2.7227e+05,69.571
-75299,-2.7245e+05,69.571
-76524,-2.724e+05,69.571
-77559,-2.7241e+05,69.571
-77904,-2.7252e+05,69.571
-78119,-2.7213e+05,69.571
-78107,-2.7249e+05,69.571
-78144,-2.7279e+05,69.571
-78115,-2.7211e+05,69.571
-78051,-2.7174e+05,69.571
-77292,-2.714e+05,69.571
-76737,-2.7131e+05,69.571
-75484,-2.7123e+05,69.571
-74720,-2.7168e+05,69.571
-73659,-2.7125e+05,69.571
-72922,-2.7134e+05,69.571
-72451,-2.7119e+05,69.571
-70230,-2.7148e+05,69.571
-69728,-2.7133e+05,69.571
-68816,-2.7118e+05,69.571
-67722,-2.7131e+05,69.571
-67128,-2.7149e+05,69.571
-67282,-2.7151e+05,69.571
-66612,-2.7104e+05,69.571
-66676,-2.7167e+05,69.571
-66485,-2.7154e+05,69.571
-66630,-2.7121e+05,69.571
-67392,-2.716e+05,69.571
-68339,-2.7164e+05,69.571
-68755,-2.7152e+05,69.571
-70329,-2.7222e+05,69.571
-71046,-2.7196e+05,69.571
-71557,-2.7191e+05,69.571
-72714,-2.7225e+05,69.571
-74067,-2.7266e+05,69.571
-75216,-2.7232e+05,69.571
-76327,-2.7216e+05,69.571
-77766,-2.7251e+05,69.571
-77939,-2.7235e+05,69.571
-78335,-2.7231e+05,69.571
-79068,-2.7188e+05,69.571
-78020,-2.717e+05,69.571
-77487,-2.7148e+05,69.571
-77763,-2.7191e+05,69.571
-77011,-2.7144e+05,69.571
-75064,-2.7125e+05,69.571
-72918,-2.7018e+05,69.571
-72679,-2.7018e+05,69.571
-71831,-2.7043e+05,69.571
-71183,-2.712e+05,69.571
-70450,-2.7067e+05,69.571
-69900,-2.7085e+05,69.571
-68972,-2.7073e+05,69.571
-68665,-2.7131e+05,69.571
-67963,-2.7125e+05,69.571
-67548,-2.713e+05,69.571
-68402,-2.7063e+05,69.571
-67424,-2.7123e+05,69.571
-67618,-2.7112e+05,69.571
-67836,-2.7105e+05,69.571
-68813,-2.7137e+05,69.571
-69249,-2.715e+05,69.571
-70348,-2.7116e+05,69.571
-70125,-2.7171e+05,69.571
-71360,-2.7112e+05,69.571
-71291,-2.7153e+05,69.571
-72111,-2.7202e+05,69.571
-73744,-2.7187e+05,69.571
-74614,-2.7137e+05,69.571
-76233,-2.7099e+05,69.571
-76633,-2.7201e+05,69.571
-77493,-2.7103e+05,69.571
-77156,-2.7092e+05,69.571
-76653,-2.7102e+05,69.571
-77824,-2.7144e+05,69.571
-77848,-2.7126e+05,69.571
-77397,-2.7079e+05,69.571
-76826,-2.706e+05,69.571
-75660,-2.7022e+05,69.571
-74291,-2.7068e+05,69.571
-72789,-2.7028e+05,69.571
-71987,-2.7057e+05,69.571
-71014,-2.7087e+05,69.571
-69873,-2.7087e+05,69.571
-69055,-2.7066e+05,69.571
-67731,-2.7083e+05,69.571
-67625,-2.7108e+05,69.571
-66400,-2.7135e+05,69.571
-65904,-2.7065e+05,69.571
-65956,-2.7102e+05,69.571
-65387,-2.7122e+05,69.571
-65250,-2.7098e+05,69.571
-65747,-2.7166e+05,69.571
-65808,-2.7141e+05,69.571
-66046,-2.7139e+05,69.571
-67421,-2.7102e+05,69.571
-68913,-2.7168e+05,69.571
-70417,-2.7255e+05,69.571
-71765,-2.7225e+05,69.571
-73153,-2.7209e+05,69.571
-75443,-2.7191e+05,69.571
-75708,-2.712e+05,69.571
-77997,-2.7158e+05,69.571
-78566,-2.7177e+05,69.571
-79955,-2.7196e+05,69.571
-79318,-2.7171e+05,69.571
-79808,-2.7168e+05,69.571
-80025,-2.7127e+05,69.571
-79465,-2.7187e+05,69.571
-79553,-2.7205e+05,69.571
-79366,-2.7173e+05,69.571
-78278,-2.7151e+05,69.571
-76721,-2.7122e+05,69.571
-76333,-2.7176e+05,69.571
-75072,-2.7092e+05,69.571
-74281,-2.719e+05,69.571
-73618,-2.7176e+05,69.571
-72493,-2.7221e+05,69.571
-71598,-2.7197e+05,69.571
-70514,-2.7196e+05,69.571
-70272,-2.723e+05,69.571
-68956,-2.7173e+05,69.571
-69321,-2.7209e+05,69.571
-69150,-2.7223e+05,69.571
-69177,-2.7175e+05,69.571
-69117,-2.7181e+05,69.571
-68808,-2.7205e+05,69.571
-69220,-2.7163e+05,69.571
-69688,-2.7208e+05,69.571
-71024,-2.7189e+05,69.571
-72218,-2.7208e+05,69.571
-73598,-2.72e+05,69.571
-73886,-2.718e+05,69.571
-74262,-2.7183e+05,69.571
-74630,-2.7178e+05,69.571
-74669,-2.7177e+05,69.571
-75308,-2.7093e+05,69.571
-75876,-2.7065e+05,69.571
-75923,-2.7104e+05,69.571
-75476,-2.712e+05,69.571
-76766,-2.7103e+05,69.571
-76589,-2.7124e+05,69.571
-76679,-2.7155e+05,69.571
-76702,-2.715e+05,69.571
-76217,-2.7196e+05,69.571
-75707,-2.7103e+05,69.571
-75564,-2.7138e+05,69.571
-74828,-2.7079e+05,69.571
-73844,-2.7108e+05,69.571
-73240,-2.7139e+05,69.571
-71918,-2.7086e+05,69.571
-70590,-2.7114e+05,69.571
-69985,-2.7192e+05,69.571
-69076,-2.7165e+05,69.571
-67687,-2.7164e+05,69.571
-67524,-2.7162e+05,69.571
-67574,-2.7204e+05,69.571
-67250,-2.7083e+05,69.571
-66917,-2.7214e+05,69.571
-67232,-2.7168e+05,69.571
-67066,-2.7174e+05,69.571
-68254,-2.7217e+05,69.571
-69024,-2.7171e+05,69.571
-69693,-2.7209e+05,69.571
-70728,-2.72e+05,69.571
-70992,-2.716e+05,69.571
-71967,-2.7184e+05,69.571
-73595,-2.7215e+05,69.571
-73740,-2.7222e+05,69.571
-74625,-2.7213e+05,69.571
-75008,-2.7178e+05,69.571
-75623,-2.7151e+05,69.571
-76460,-2.7184e+05,69.571
-76608,-2.7124e+05,69.571
-77338,-2.7124e+05,69.571
-77332,-2.7092e+05,69.571
-77349,-2.7155e+05,69.571
-76918,-2.7127e+05,69.571
-77276,-2.7194e+05,69.571
-75993,-2.7174e+05,69.571
-75604,-2.721e+05,69.571
-74764,-2.7163e+05,69.571
-74221,-2.7161e+05,69.571
-73753,-2.719e+05,69.571
-72293,-2.7184e+05,69.571
-71836,-2.7126e+05,69.571
-70308,-2.7193e+05,69.571
-69684,-2.7152e+05,69.571
-68520,-2.7159e+05,69.571
-68850,-2.7224e+05,69.571
-68494,-2.7193e+05,69.571
-67814,-2.7122e+05,69.571
-67735,-2.7149e+05,69.571
-67576,-2.7179e+05,69.571
-68159,-2.722e+05,69.571
-69408,-2.7234e+05,69.571
-70964,-2.7218e+05,69.571
-70999,-2.7197e+05,69.571
-72026,-2.7159e+05,69.571
-72735,-2.7148e+05,69.571
-73587,-2.7174e+05,69.571
-75115,-2.7093e+05,69.571
-74748,-2.7082e+05,69.571
-75377,-2.7088e+05,69.571
-76360,-2.7023e+05,69.571
-76859,-2.7029e+05,69.571
-77172,-2.7097e+05,69.571
-77715,-2.7092e+05,69.571
-77837,-2.7094e+05,69.571
-77991,-2.711e+05,69.571
-77887,-2.7094e+05,69.571
-76999,-2.71e+05,69.571
-75705,-2.7117e+05,69.571
-75510,-2.711e+05,69.571
-74004,-2.7085e+05,69.571
-73041,-2.7134e+05,69.571
-72326,-2.7106e+05,69.571
-70348,-2.7103e+05,69.571
-69752,-2.7149e+05,69.571
-68668,-2.7135e+05,69.571
-68478,-2.7155e+05,69.571
-67659,-2.714e+05,69.571
-67079,-2.71e+05,69.571
-67795,-2.7125e+05,69.571
-68416,-2.719e+05,69.571
-68298,-2.7216e+05,69.571
-68631,-2.7186e+05,69.571
-68710,-2.715e+05,69.571
-69298,-2.7178e+05,69.571
-69526,-2.7129e+05,69.571
-70105,-2.7128e+05,69.571
-70230,-2.713e+05,69.571
-71695,-2.7099e+05,69.571
-71998,-2.7079e+05,69.571
-73098,-2.7095e+05,69.571
-74217,-2.7135e+05,69.571
-74991,-2.7056e+05,69.571
-75988,-2.7165e+05,69.571
-76323,-2.7136e+05,69.571
-76442,-2.717e+05,69.571
-76651,-2.7185e+05,69.571
-76315,-2.7136e+05,69.571
-76394,-2.7206e+05,69.571
-76044,-2.7178e+05,69.571
-75552,-2.715e+05,69.571
-75452,-2.7156e+05,69.571
-75295,-2.7164e+05,69.571
-75809,-2.7172e+05,69.571
-75582,-2.7165e+05,69.571
-74572,-2.7194e+05,69.571
-73946,-2.7183e+05,69.571
-72062,-2.7159e+05,69.571
-71555,-2.7146e+05,69.571
-70634,-2.7196e+05,69.571
-70139,-2.7166e+05,69.571
-69258,-2.7169e+05,69.571
-68679,-2.7195e+05,69.571
-68348,-2.7191e+05,69.571
-68170,-2.723e+05,69.571
-68378,-2.7202e+05,69.571
-68369,-2.7151e+05,69.571
-68907,-2.7171e+05,69.571
-69672,-2.7207e+05,69.571
-70313,-2.7166e+05,69.571
-71653,-2.7158e+05,69.571
-72574,-2.7165e+05,69.571
-72999,-2.7198e+05,69.571
-74921,-2.7191e+05,69.571
-75137,-2.7123e+05,69.571
-76641,-2.7158e+05,69.571
-76837,-2.7148e+05,69.571
-77645,-2.7149e+05,69.571
-77807,-2.7115e+05,69.571
-77499,-2.7105e+05,69.571
-79429,-2.7133e+05,69.571
-79391,-2.7146e+05,69.571
-79561,-2.7117e+05,69.571
-78518,-2.7187e+05,69.571
-78137,-2.7165e+05,69.571
-76727,-2.7166e+05,69.571
-75437,-2.713e+05,69.571
-73972,-2.7208e+05,69.571
-73198,-2.7171e+05,69.571
-73551,-2.722e+05,69.571
-71699,-2.7235e+05,69.571
-70910,-2.721e+05,69.571
-69968,-2.7195e+05,69.571
-69055,-2.7159e+05,69.571
-68600,-2.7144e+05,69.571
-68773,-2.7171e+05,69.571
-68639,-2.7136e+05,69.571
-68543,-2.7131e+05,69.571
-67847,-2.7139e+05,69.571
-68153,-2.7121e+05,69.571
-68255,-2.7152e+05,69.571
-68831,-2.7148e+05,69.571
-68603,-2.7124e+05,69.571
-69337,-2.7125e+05,69.571
-69785,-2.717e+05,69.571
-71240,-2.718e+05,69.571
-72847,-2.7181e+05,69.571
-74470,-2.719e+05,69.571
-75501,-2.7179e+05,69.571
-75887,-2.7188e+05,69.571
-77442,-2.7219e+05,69.571
-78212,-2.7155e+05,69.571
-78390,-2.7213e+05,69.571
-79020,-2.7254e+05,69.571
-79025,-2.7139e+05,69.571
-78630,-2.7127e+05,69.571
-78911,-2.7123e+05,69.571
-78357,-2.7133e+05,69.571
-77853,-2.7116e+05,69.571
-77150,-2.7084e+05,69.571
-76559,-2.7133e+05,69.571
-75396,-2.7173e+05,69.571
-73995,-2.712e+05,69.571
-72474,-2.7083e+05,69.571
-71050,-2.7132e+05,69.571
-70172,-2.7141e+05,69.571
-69591,-2.7103e+05,69.571
-68345,-2.7222e+05,69.571
-68475,-2.7176e+05,69.571
-69111,-2.7169e+05,69.571
-68375,-2.717e+05,69.571
-68775,-2.7177e+05,69.571
-69486,-2.7162e+05,69.571
-69791,-2.7168e+05,69.571
-70482,-2.714e+05,69.571
-71412,-2.7147e+05,69.571
-71619,-2.713e+05,69.571
-72996,-2.7146e+05,69.571
-72977,-2.716e+05,69.571
-73640,-2.7104e+05,69.571
-74242,-2.7121e+05,69.571
-74566,-2.7119e+05,69.571
-74469,-2.7035e+05,69.571
-74812,-2.715e+05,69.571
-75652,-2.7122e+05,69.571
-75275,-2.7109e+05,69.571
-74740,-2.7125e+05,69.571
-74827,-2.7065e+05,69.571
-74359,-2.704e+05,69.571
-73787,-2.7033e+05,69.571
-73806,-2.7014e+05,69.571
-73805,-2.7072e+05,69.571
-73425,-2.7039e+05,69.571
-72373,-2.6981e+05,69.571
-72305,-2.7061e+05,69.571
-72923,-2.7087e+05,69.571
-72368,-2.7087e+05,69.571
-72066,-2.707e+05,69.571
-71007,-2.7079e+05,69.571
-70606,-2.7122e+05,69.571
-69422,-2.7194e+05,69.571
-70018,-2.7191e+05,69.571
-70690,-2.7167e+05,69.571
-70517,-2.7176e+05,69.571
-70681,-2.7235e+05,69.571
-70482,-2.7218e+05,69.571
-71111,-2.7259e+05,69.571
-71872,-2.7255e+05,69.571
-72541,-2.7293e+05,69.571
-73142,-2.7286e+05,69.571
-73503,-2.7278e+05,69.571
-74001,-2.7271e+05,69.571
-75108,-2.7264e+05,69.571
-76004,-2.72e+05,69.571
-77404,-2.7224e+05,69.571
-77134,-2.7155e+05,69.571
-78132,-2.7164e+05,69.571
-78341,-2.7157e+05,69.571
-78473,-2.7115e+05,69.571
-78240,-2.7146e+05,69.571
-77967,-2.7132e+05,69.571
-78327,-2.7143e+05,69.571
-77912,-2.7148e+05,69.571
-77374,-2.7149e+05,69.571
-76683,-2.7077e+05,69.571
-75917,-2.7069e+05,69.571
-74936,-2.7092e+05,69.571
-74377,-2.7085e+05,69.571
-74161,-2.706e+05,69.571
-73257,-2.7076e+05,69.571
-71639,-2.7026e+05,69.571
-71454,-2.7006e+05,69.571
-69976,-2.7052e+05,69.571
-69402,-2.705e+05,69.571
-68192,-2.7e+05,69.571
-67789,-2.6995e+05,69.571
-67988,-2.7061e+05,69.571
-68093,-2.7082e+05,69.571
-68686,-2.716e+05,69.571
-69493,-2.7166e+05,69.571
-71022,-2.7175e+05,69.571
-71693,-2.7173e+05,69.571
-73064,-2.7189e+05,69.571
-73640,-2.7222e+05,69.571
-74168,-2.7228e+05,69.571
-74477,-2.7241e+05,69.571
-75495,-2.7236e+05,69.571
-76374,-2.724e+05,69.571
-78197,-2.7215e+05,69.571
-78194,-2.7273e+05,69.571
-78818,-2.7299e+05,69.571
-78428,-2.7253e+05,69.571
-78197,-2.725e+05,69.571
-78875,-2.7209e+05,69.571
-79186,-2.7286e+05,69.571
-78632,-2.7215e+05,69.571
-77847,-2.7191e+05,69.571
-78269,-2.7197e+05,69.571
-77150,-2.7132e+05,69.571
-76445,-2.7069e+05,69.571
-75546,-2.7133e+05,69.571
-74819,-2.7165e+05,69.571
-73857,-2.7143e+05,69.571
-72382,-2.7126e+05,69.571
-71356,-2.7097e+05,69.571
-71297,-2.7133e+05,69.571
-69961,-2.71e+05,69.571
-68154,-2.7083e+05,69.571
-68474,-2.7103e+05,69.571
-68434,-2.7078e+05,69.571
-67653,-2.7093e+05,69.571
-67706,-2.7132e+05,69.571
-68202,-2.7125e+05,69.571
-68895,-2.716e+05,69.571
-69598,-2.7152e+05,69.571
-71012,-2.7196e+05,69.571
-70964,-2.7145e+05,69.571
-72343,-2.7248e+05,69.571
-73005,-2.7154e+05,69.571
-74056,-2.7222e+05,69.571
-76306,-2.7257e+05,69.571
-76871,-2.7171e+05,69.571
-77876,-2.7186e+05,69.571
-77904,-2.7209e+05,69.571
-78408,-2.7223e+05,69.571
-78092,-2.7173e+05,69.571
-78714,-2.7185e+05,69.571
-79054,-2.714e+05,69.571
-79134,-2.7221e+05,69.571
-79379,-2.7125e+05,69.571
-79143,-2.7149e+05,69.571
-78635,-2.7084e+05,69.571
-77466,-2.7123e+05,69.571
-77396,-2.7117e+05,69.571
-75985,-2.7136e+05,69.571
-75034,-2.7086e+05,69.571
-73597,-2.7045e+05,69.571
-71462,-2.7056e+05,69.571
-71094,-2.7024e+05,69.571
-70310,-2.6997e+05,69.571
-68987,-2.7021e+05,69.571
-68503,-2.7023e+05,69.571
-69112,-2.7015e+05,69.571
-68335,-2.7099e+05,69.571
-68574,-2.7096e+05,69.571
-68979,-2.7206e+05,69.571
-69091,-2.7091e+05,69.571
-69186,-2.7171e+05,69.571
-70280,-2.7203e+05,69.571
