-80167,-2.7205e+05,0
-80564,-2.7212e+05,0
-81203,-2.7205e+05,0
-80182,-2.7157e+05,0
-80838,-2.7285e+05,0
-80187,-2.7274e+05,0
-80186,-2.7328e+05,0
-79662,-2.7316e+05,0
-79920,-2.7348e+05,0
-78793,-2.7394e+05,0
-78058,-2.7497e+05,0
-77608,-2.7627e+05,0
-77207,-2.7677e+05,0
-77994,-2.7736e+05,0
-78139,-2.7718e+05,0
-76882,-2.7734e+05,0
-76392,-2.7672e+05,0
-76033,-2.7578e+05,0
-75762,-2.7554e+05,0
-76299,-2.746e+05,0
-76048,-2.7402e+05,0
-75916,-2.7483e+05,0
-76459,-2.7499e+05,0
-76992,-2.7462e+05,0
-77716,-2.7402e+05,0
-77852,-2.74e+05,0
-78592,-2.7399e+05,0
-79490,-2.7342e+05,0
-79564,-2.7314e+05,0
-81160,-2.7342e+05,0
-81652,-2.7379e+05,0
-81497,-2.7345e+05,0
-81766,-2.7325e+05,0
-81891,-2.7364e+05,0
-81360,-2.7348e+05,0
-81798,-2.7383e+05,0
-80939,-2.7439e+05,0
-80446,-2.7385e+05,0
-80040,-2.7385e+05,0
-79278,-2.7385e+05,0
-79262,-2.7359e+05,0
-79384,-2.7353e+05,0
-77794,-2.7372e+05,0
-77525,-2.7346e+05,0
-76968,-2.7358e+05,0
-75653,-2.7337e+05,0
-74338,-2.7347e+05,0
-74217,-2.7406e+05,0
-75096,-2.7472e+05,0
-75266,-2.752e+05,0
-75422,-2.746e+05,0
-75282,-2.7475e+05,0
-75498,-2.7439e+05,0
-76136,-2.7403e+05,0
-75655,-2.7404e+05,0
-76233,-2.7373e+05,0
-76408,-2.7413e+05,0
-76288,-2.7361e+05,0
-76742,-2.7238e+05,0
-77569,-2.7241e+05,0
-78442,-2.7276e+05,0
-79183,-2.7305e+05,0
-80252,-2.7326e+05,0
-80499,-2.7367e+05,0
-80880,-2.7339e+05,0
-80452,-2.7341e+05,0
-80730,-2.7333e+05,0
-81079,-2.7367e+05,0
-81107,-2.7331e+05,0
-81127,-2.7246e+05,0
-80972,-2.7228e+05,0
-80657,-2.7317e+05,0
-80742,-2.741e+05,0
-80762,-2.7405e+05,0
-79668,-2.743e+05,0
-79082,-2.7387e+05,0
-77326,-2.7404e+05,0
-76789,-2.7362e+05,0
-76373,-2.7405e+05,0
-75612,-2.7374e+05,0
-75070,-2.7434e+05,0
-75360,-2.7435e+05,0
-74879,-2.7355e+05,0
-74255,-2.7272e+05,0
-73650,-2.7216e+05,0
-73337,-2.734e+05,0
-75030,-2.7525e+05,0
-76987,-2.7716e+05,0
-78743,-2.7703e+05,0
-78774,-2.7585e+05,0
-78396,-2.7535e+05,0
-77719,-2.7373e+05,0
-78361,-2.7335e+05,0
-78476,-2.7302e+05,0
-78678,-2.7253e+05,0
-79255,-2.729e+05,0
-81616,-2.7261e+05,0
-81414,-2.7345e+05,0
-80974,-2.7329e+05,0
-81737,-2.7348e+05,0
-81459,-2.7349e+05,0
-81609,-2.7334e+05,0
-80563,-2.7307e+05,0
-80362,-2.7262e+05,0
-80357,-2.7364e+05,0
-79509,-2.7335e+05,0
-79105,-2.7356e+05,0
-78430,-2.7418e+05,0
-78595,-2.747e+05,0
-77157,-2.7385e+05,0
-76240,-2.7326e+05,0
-75490,-2.7428e+05,0
-75429,-2.752e+05,0
-76126,-2.7564e+05,0
-75604,-2.7548e+05,0
-75839,-2.7464e+05,0
-76020,-2.7443e+05,0
-75329,-2.7414e+05,0
-75502,-2.7481e+05,0
-76703,-2.7628e+05,0
-76890,-2.7522e+05,0
-76290,-2.7548e+05,0
-76561,-2.75e+05,0
-76666,-2.7472e+05,0
-77469,-2.7366e+05,0
-77842,-2.7404e+05,0
-78035,-2.7272e+05,0
-79074,-2.7249e+05,0
-79772,-2.728e+05,0
-80389,-2.7226e+05,0
-80480,-2.7236e+05,0
-80446,-2.7181e+05,0
-80834,-2.7214e+05,0
-81327,-2.7181e+05,0
-80506,-2.7258e+05,0
-81038,-2.7257e+05,0
-80624,-2.7242e+05,0
-81322,-2.7305e+05,0
-80129,-2.7336e+05,0
-80008,-2.7372e+05,0
-79501,-2.7415e+05,0
-79399,-2.7424e+05,0
-78095,-2.7434e+05,0
-77660,-2.7434e+05,0
-76439,-2.7438e+05,0
-77199,-2.7522e+05,0
-75915,-2.7471e+05,0
-75406,-2.7521e+05,0
-75521,-2.7547e+05,0
-75581,-2.759e+05,0
-75579,-2.754e+05,0
-75652,-2.7551e+05,0
-75159,-2.7556e+05,0
-74761,-2.7559e+05,0
-75234,-2.7469e+05,0
-76058,-2.7398e+05,0
-76447,-2.7332e+05,0
-76139,-2.7288e+05,0
-76251,-2.7243e+05,0
-77672,-2.7292e+05,0
-77881,-2.7239e+05,0
-78608,-2.7073e+05,0
-78581,-2.7207e+05,0
-80492,-2.7443e+05,0
-81282,-2.7429e+05,0
-82162,-2.7412e+05,0
-82329,-2.7371e+05,0
-81640,-2.7398e+05,0
-81491,-2.7409e+05,0
-81225,-2.7336e+05,0
-81307,-2.7382e+05,0
-80012,-2.7331e+05,0
-79699,-2.7288e+05,0
-78906,-2.7281e+05,0
-78750,-2.7417e+05,0
-79375,-2.7461e+05,0
-79010,-2.7541e+05,0
-78685,-2.751e+05,0
-77896,-2.7517e+05,0
-76551,-2.7501e+05,0
-76074,-2.7492e+05,0
-75882,-2.7441e+05,0
-74830,-2.7552e+05,0
-74584,-2.7511e+05,0
-74040,-2.7528e+05,0
-74609,-2.7564e+05,0
-75231,-2.7585e+05,0
-75151,-2.7551e+05,0
-76602,-2.7477e+05,0
-76903,-2.7417e+05,0
-77303,-2.743e+05,0
-77387,-2.7334e+05,0
-78036,-2.7353e+05,0
-79100,-2.732e+05,0
-79021,-2.7296e+05,0
-78798,-2.7232e+05,0
-80751,-2.7275e+05,0
-81693,-2.7237e+05,0
-80799,-2.7381e+05,0
-81440,-2.7282e+05,0
-81486,-2.7306e+05,0
-81627,-2.739e+05,0
-81275,-2.7327e+05,0
-80846,-2.7396e+05,0
-81096,-2.7351e+05,0
-80768,-2.7411e+05,0
-79525,-2.7372e+05,0
-79901,-2.7395e+05,0
-79435,-2.7463e+05,0
-78223,-2.7437e+05,0
-76985,-2.7495e+05,0
-76404,-2.751e+05,0
-76702,-2.7549e+05,0
-75412,-2.7516e+05,0
-74648,-2.749e+05,0
-74129,-2.7451e+05,0
-73891,-2.738e+05,0
-74002,-2.7504e+05,0
-75143,-2.7642e+05,0
-75878,-2.7698e+05,0
-76411,-2.7656e+05,0
-76521,-2.7529e+05,0
-75666,-2.7503e+05,0
-76530,-2.7455e+05,0
-77936,-2.7445e+05,0
-77780,-2.7412e+05,0
-78482,-2.7309e+05,0
-78803,-2.7252e+05,0
-78999,-2.714e+05,0
-80213,-2.7137e+05,0
-79279,-2.7141e+05,0
-80036,-2.7157e+05,0
-80586,-2.7177e+05,0
-80958,-2.713e+05,0
-80789,-2.7199e+05,0
-80539,-2.7282e+05,0
-80220,-2.7261e+05,0
-80558,-2.7304e+05,0
-79254,-2.7197e+05,0
-78719,-2.7298e+05,0
-78460,-2.7328e+05,0
-78936,-2.7336e+05,0
-78228,-2.7382e+05,0
-77790,-2.7432e+05,0
-76900,-2.7385e+05,0
-76448,-2.7382e+05,0
-74976,-2.7373e+05,0
-74534,-2.7323e+05,0
-74222,-2.7286e+05,0
-72846,-2.7331e+05,0
-73797,-2.7436e+05,0
-74162,-2.7498e+05,0
-74796,-2.7544e+05,0
-74576,-2.7497e+05,0
-74662,-2.7422e+05,0
-75329,-2.739e+05,0
-75970,-2.7411e+05,0
-76802,-2.7399e+05,0
-76796,-2.7381e+05,0
-78242,-2.7369e+05,0
-79226,-2.7421e+05,0
-79209,-2.7382e+05,0
-79989,-2.7273e+05,0
-80773,-2.724e+05,0
-80743,-2.7312e+05,0
-81762,-2.7288e+05,0
-82054,-2.7312e+05,0
-81263,-2.7247e+05,0
-81408,-2.723e+05,0
-81556,-2.7254e+05,0
-80409,-2.7255e+05,0
-79785,-2.7293e+05,0
-79730,-2.7339e+05,0
-79059,-2.7422e+05,0
-78630,-2.7419e+05,0
-79040,-2.7449e+05,0
-77709,-2.7469e+05,0
-77155,-2.7516e+05,0
-76552,-2.7493e+05,0
-74987,-2.7452e+05,0
-74834,-2.7389e+05,0
-74330,-2.738e+05,0
-74282,-2.7405e+05,0
-74128,-2.7364e+05,0
-74274,-2.7398e+05,0
-74063,-2.7425e+05,0
-75400,-2.7436e+05,0
-75953,-2.7334e+05,0
-75519,-2.7334e+05,0
-76087,-2.7489e+05,0
-77154,-2.7573e+05,0
-77336,-2.7569e+05,0
-78065,-2.7519e+05,0
-79107,-2.7451e+05,0
-79172,-2.7357e+05,0
-79142,-2.7213e+05,0
-80416,-2.7267e+05,0
-80704,-2.7278e+05,0
-80413,-2.732e+05,0
-80550,-2.7247e+05,0
-80351,-2.7312e+05,0
-79682,-2.7256e+05,0
-80060,-2.7201e+05,0
-80297,-2.7217e+05,0
-79679,-2.7274e+05,0
-79387,-2.7303e+05,0
-79164,-2.7331e+05,0
-78956,-2.7345e+05,0
-78134,-2.7313e+05,0
-76844,-2.7251e+05,0
-77043,-2.7404e+05,0
-77408,-2.765e+05,0
-77398,-2.7615e+05,0
-75935,-2.7541e+05,0
-75168,-2.75e+05,0
-75057,-2.7428e+05,0
-75097,-2.7489e+05,0
-75763,-2.7541e+05,0
-76178,-2.7524e+05,0
-75995,-2.7422e+05,0
-75668,-2.749e+05,0
-75714,-2.7507e+05,0
-76271,-2.7474e+05,0
-76784,-2.744e+05,0
-77411,-2.7391e+05,0
-77541,-2.7387e+05,0
-78616,-2.7372e+05,0
-78701,-2.7274e+05,0
-78701,-2.7243e+05,0
-79585,-2.7285e+05,0
-79854,-2.7209e+05,0
-80281,-2.7216e+05,0
-80462,-2.7291e+05,0
-79959,-2.7227e+05,0
-79944,-2.7221e+05,0
-80177,-2.7204e+05,0
-79937,-2.7248e+05,0
-80051,-2.726e+05,0
-79921,-2.7176e+05,0
-80280,-2.7242e+05,0
-79226,-2.7308e+05,0
-79067,-2.7366e+05,0
-78297,-2.7435e+05,0
-77110,-2.7461e+05,0
-76319,-2.742e+05,0
-75546,-2.7509e+05,0
-75936,-2.7482e+05,0
-75639,-2.7557e+05,0
-76362,-2.7473e+05,0
-75238,-2.7432e+05,0
-75599,-2.7433e+05,0
-74964,-2.7467e+05,0
-75145,-2.7469e+05,0
-75365,-2.7412e+05,0
-75863,-2.7417e+05,0
-75666,-2.7393e+05,0
-76379,-2.7397e+05,0
-74987,-2.7308e+05,0
-74965,-2.7253e+05,0
-76797,-2.7297e+05,0
-77354,-2.7338e+05,0
-78115,-2.7211e+05,0
-78021,-2.7157e+05,0
-78788,-2.712e+05,0
-78220,-2.7082e+05,0
-77633,-2.7137e+05,0
-77732,-2.7013e+05,0
-77618,-2.7071e+05,0
-79969,-2.7226e+05,0
-81605,-2.7284e+05,0
-81406,-2.7453e+05,0
-80838,-2.7492e+05,0
-79712,-2.7498e+05,0
-79477,-2.7534e+05,0
-80056,-2.7451e+05,0
-80173,-2.7367e+05,0
-79065,-2.7458e+05,0
-77740,-2.7416e+05,0
-77190,-2.7383e+05,0
-76248,-2.7432e+05,0
-76283,-2.7427e+05,0
-75353,-2.7438e+05,0
-75356,-2.7386e+05,0
-74780,-2.7447e+05,0
-75145,-2.7469e+05,14
-75365,-2.7412e+05,14
-75863,-2.7417e+05,14
-75666,-2.7393e+05,14
-76379,-2.7397e+05,14
-74987,-2.7308e+05,14
-74965,-2.7253e+05,14
-76797,-2.7297e+05,14
-77354,-2.7338e+05,14
-78115,-2.7211e+05,14
-78021,-2.7157e+05,14
-78788,-2.712e+05,14
-78220,-2.7082e+05,14
-77633,-2.7137e+05,14
-77732,-2.7013e+05,14
-77618,-2.7071e+05,14
-79969,-2.7226e+05,14
-81605,-2.7284e+05,14
-81406,-2.7453e+05,14
-80838,-2.7492e+05,14
-79712,-2.7498e+05,14
-79477,-2.7534e+05,14
-80056,-2.7451e+05,14
-80173,-2.7367e+05,14
-79065,-2.7458e+05,14
-77740,-2.7416e+05,14
-77190,-2.7383e+05,14
-76248,-2.7432e+05,14
-76283,-2.7427e+05,14
-75353,-2.7438e+05,14
-75356,-2.7386e+05,14
-74780,-2.7447e+05,14
-74850,-2.7419e+05,14
-74325,-2.7434e+05,14
-74450,-2.7427e+05,14
-75090,-2.7343e+05,14
-75532,-2.7409e+05,14
-75350,-2.7461e+05,14
-75850,-2.7405e+05,14
-76908,-2.7392e+05,14
-77806,-2.7413e+05,14
-78620,-2.7356e+05,14
-78601,-2.737e+05,14
-78866,-2.7343e+05,14
-79545,-2.7345e+05,14
-80712,-2.7314e+05,14
-81165,-2.7346e+05,14
-81418,-2.7224e+05,14
-80365,-2.7279e+05,14
-80708,-2.7332e+05,14
-80944,-2.7401e+05,14
-80975,-2.7357e+05,14
-80812,-2.7355e+05,14
-79699,-2.7412e+05,14
-79580,-2.7368e+05,14
-79487,-2.7405e+05,14
-79519,-2.7395e+05,14
-78727,-2.7399e+05,14
-77726,-2.739e+05,14
-77072,-2.7434e+05,14
-76800,-2.7383e+05,14
-75654,-2.7456e+05,14
-75579,-2.7493e+05,14
-75502,-2.7481e+05,14
-74902,-2.7451e+05,14
-74996,-2.747e+05,14
-75156,-2.7449e+05,14
-75456,-2.7468e+05,14
-75348,-2.7454e+05,14
-75566,-2.7526e+05,14
-76089,-2.7506e+05,14
-76202,-2.742e+05,14
-76161,-2.7351e+05,14
-76000,-2.7351e+05,14
-77615,-2.7413e+05,14
-77991,-2.7357e+05,14
-78201,-2.7356e+05,14
-78932,-2.7345e+05,14
-79251,-2.732e+05,14
-78903,-2.7316e+05,14
-79584,-2.7285e+05,14
-79416,-2.7291e+05,14
-80132,-2.7238e+05,14
-79386,-2.7217e+05,14
-78935,-2.7173e+05,14
-78997,-2.7175e+05,14
-78894,-2.721e+05,14
-78976,-2.7286e+05,14
-78780,-2.7408e+05,14
-78547,-2.739e+05,14
-78370,-2.737e+05,14
-77282,-2.7367e+05,14
-76286,-2.7357e+05,14
-75387,-2.7289e+05,14
-74352,-2.7451e+05,14
-74352,-2.7451e+05,14
-74902,-2.7451e+05,14
-74996,-2.747e+05,14
-75156,-2.7449e+05,14
-75456,-2.7468e+05,14
-75348,-2.7454e+05,14
-75566,-2.7526e+05,14
-76089,-2.7506e+05,14
-76202,-2.742e+05,14
-76161,-2.7351e+05,14
-76000,-2.7351e+05,14
-77615,-2.7413e+05,14
-77991,-2.7357e+05,14
-78201,-2.7356e+05,14
-78932,-2.7345e+05,14
-79251,-2.732e+05,14
-78903,-2.7316e+05,14
-79584,-2.7285e+05,14
-79416,-2.7291e+05,14
-80132,-2.7238e+05,14
-79386,-2.7217e+05,14
-78935,-2.7173e+05,14
-78997,-2.7175e+05,14
-78894,-2.721e+05,14
-78976,-2.7286e+05,14
-78780,-2.7408e+05,14
-78547,-2.739e+05,14
-78370,-2.737e+05,14
-77282,-2.7367e+05,14
-76286,-2.7357e+05,14
-75387,-2.7289e+05,14
-74352,-2.7451e+05,14
-74352,-2.7451e+05,14
-75430,-2.7545e+05,14
-75657,-2.7474e+05,14
-74953,-2.7357e+05,14
-74432,-2.7303e+05,14
-74256,-2.7247e+05,14
-75286,-2.7329e+05,14
-75462,-2.7336e+05,14
-76003,-2.7447e+05,14
-76323,-2.7452e+05,14
-77130,-2.7488e+05,14
-77525,-2.7534e+05,14
-78610,-2.7512e+05,14
-79006,-2.7411e+05,14
-79078,-2.7335e+05,14
-79366,-2.7325e+05,14
-79518,-2.7278e+05,14
-80403,-2.7263e+05,14
-79927,-2.7235e+05,14
-80252,-2.7229e+05,14
-80200,-2.7275e+05,14
-79946,-2.7256e+05,14
-79165,-2.733e+05,14
-79446,-2.7308e+05,14
-79929,-2.7346e+05,14
-79027,-2.729e+05,14
-78625,-2.726e+05,14
-77983,-2.7218e+05,14
-78359,-2.715e+05,14
-77734,-2.7221e+05,14
-77214,-2.7303e+05,14
-76691,-2.7374e+05,14
-76046,-2.7339e+05,14
-75415,-2.7321e+05,14
-75115,-2.7195e+05,14
-74423,-2.7188e+05,14
-74532,-2.7276e+05,14
-75371,-2.7437e+05,14
-76216,-2.7501e+05,14
-76345,-2.756e+05,14
-76166,-2.7428e+05,14
-76557,-2.7437e+05,14
-76865,-2.7417e+05,14
-76864,-2.7362e+05,14
-77728,-2.7441e+05,14
-78498,-2.7496e+05,14
-79737,-2.7447e+05,14
-80082,-2.7361e+05,14
-79906,-2.7332e+05,14
-80305,-2.729e+05,14
-80583,-2.7327e+05,14
-79664,-2.7314e+05,14
-80619,-2.7329e+05,14
-80445,-2.7338e+05,14
-80297,-2.723e+05,14
-80255,-2.7228e+05,14
-79876,-2.7297e+05,14
-80320,-2.7323e+05,14
-80049,-2.7421e+05,14
-80039,-2.738e+05,14
-80394,-2.7378e+05,14
-79794,-2.741e+05,14
-78206,-2.7347e+05,14
-78120,-2.7407e+05,14
-77125,-2.7389e+05,14
-75415,-2.7321e+05,14
-75115,-2.7195e+05,14
-74423,-2.7188e+05,14
-74532,-2.7276e+05,14
-75371,-2.7437e+05,14
-76216,-2.7501e+05,14
-76345,-2.756e+05,14
-76166,-2.7428e+05,14
-76557,-2.7437e+05,14
-76865,-2.7417e+05,14
-76864,-2.7362e+05,14
-77728,-2.7441e+05,14
-78498,-2.7496e+05,14
-79737,-2.7447e+05,14
-80082,-2.7361e+05,14
-79906,-2.7332e+05,14
-80305,-2.729e+05,14
-80583,-2.7327e+05,14
-79664,-2.7314e+05,14
-80619,-2.7329e+05,14
-80445,-2.7338e+05,14
-80297,-2.723e+05,14
-80255,-2.7228e+05,14
-79876,-2.7297e+05,14
-80320,-2.7323e+05,14
-80049,-2.7421e+05,14
-80039,-2.738e+05,14
-80394,-2.7378e+05,14
-79794,-2.741e+05,14
-78206,-2.7347e+05,14
-78120,-2.7407e+05,14
-77125,-2.7389e+05,14
-77153,-2.7369e+05,14
-76166,-2.7423e+05,14
-75645,-2.7402e+05,14
-76254,-2.7405e+05,14
-75374,-2.7358e+05,14
-75473,-2.7394e+05,14
-75411,-2.7363e+05,14
-75467,-2.7302e+05,14
-75506,-2.7384e+05,14
-76014,-2.7383e+05,14
-76221,-2.7409e+05,14
-76627,-2.7421e+05,14
-77683,-2.7432e+05,14
-77116,-2.7459e+05,14
-78168,-2.7358e+05,14
-78673,-2.7428e+05,14
-79173,-2.7373e+05,14
-79881,-2.7364e+05,14
-79853,-2.7304e+05,14
-80093,-2.735e+05,14
-80718,-2.7338e+05,14
-80373,-2.7303e+05,14
-80439,-2.7239e+05,14
-80170,-2.7295e+05,14
-80504,-2.7242e+05,14
-79333,-2.7191e+05,14
-78487,-2.7183e+05,14
-79008,-2.7208e+05,14
-78933,-2.7349e+05,14
-79483,-2.739e+05,14
-78989,-2.7418e+05,14
-78766,-2.7434e+05,14
-77741,-2.7385e+05,14
-76898,-2.7437e+05,14
-75849,-2.7406e+05,14
-76031,-2.7404e+05,14
-76414,-2.7422e+05,14
-76052,-2.7409e+05,14
-75700,-2.7395e+05,14
-75927,-2.7473e+05,14
-74962,-2.7405e+05,14
-75553,-2.738e+05,14
-75228,-2.7397e+05,14
-75255,-2.7441e+05,14
-76346,-2.7419e+05,14
-76385,-2.7283e+05,14
-76754,-2.7366e+05,14
-76985,-2.7343e+05,14
-77742,-2.7382e+05,14
-78632,-2.7317e+05,14
-78578,-2.7351e+05,14
-79358,-2.7294e+05,14
-79746,-2.7302e+05,14
-80434,-2.7297e+05,14
-80880,-2.731e+05,14
-80741,-2.7237e+05,14
-80501,-2.7325e+05,14
-80612,-2.738e+05,14
-80071,-2.7363e+05,14
-79847,-2.7408e+05,14
-80041,-2.7432e+05,14
-79522,-2.7392e+05,14
-79142,-2.7395e+05,14
-79379,-2.7425e+05,14
-78397,-2.7458e+05,14
-77877,-2.7454e+05,14
-76755,-2.748e+05,14
-76193,-2.747e+05,14
-75483,-2.74e+05,14
-75653,-2.7407e+05,14
-74859,-2.7421e+05,14
-75338,-2.7422e+05,14
-74655,-2.7369e+05,14
-74663,-2.7368e+05,14
-74915,-2.7344e+05,14
-74710,-2.7392e+05,14
-75048,-2.7389e+05,14
-75215,-2.7351e+05,14
-75765,-2.7377e+05,14
-77092,-2.745e+05,14
-77120,-2.7442e+05,14
-78044,-2.7415e+05,14
-78164,-2.7373e+05,14
-78110,-2.7309e+05,14
-79316,-2.7223e+05,14
-79063,-2.7263e+05,14
-79526,-2.7299e+05,14
-80117,-2.7288e+05,14
-80452,-2.7218e+05,14
-79189,-2.7242e+05,14
-79688,-2.7305e+05,14
-79352,-2.7294e+05,14
-78930,-2.7221e+05,14
-78499,-2.7285e+05,14
-78661,-2.7366e+05,14
-78681,-2.7407e+05,14
-79009,-2.7421e+05,14
-78102,-2.7451e+05,14
-77331,-2.7397e+05,14
-76205,-2.7328e+05,14
-76454,-2.7347e+05,14
-75507,-2.742e+05,14
-76899,-2.7421e+05,14
-76407,-2.7513e+05,14
-76311,-2.7509e+05,14
-75357,-2.7502e+05,14
-74628,-2.7431e+05,14
-74550,-2.7385e+05,14
-74497,-2.7361e+05,14
-75406,-2.7361e+05,14
-75401,-2.7353e+05,14
-75058,-2.7297e+05,14
-75575,-2.7198e+05,14
-75202,-2.7102e+05,14
-75618,-2.7065e+05,14
-76627,-2.7196e+05,14
-78540,-2.73e+05,14
-80393,-2.7512e+05,14
-82194,-2.7645e+05,14
-82390,-2.7613e+05,14
-82693,-2.7483e+05,14
-81968,-2.7469e+05,14
-81784,-2.739e+05,14
-81035,-2.7329e+05,14
-80409,-2.7215e+05,14
-80179,-2.7234e+05,14
-79488,-2.7234e+05,14
-80118,-2.7253e+05,14
-79009,-2.7421e+05,14
-78102,-2.7451e+05,14
-77331,-2.7397e+05,14
-76205,-2.7328e+05,14
-76454,-2.7347e+05,14
-75507,-2.742e+05,14
-76899,-2.7421e+05,14
-76407,-2.7513e+05,14
-76311,-2.7509e+05,14
-75357,-2.7502e+05,14
-74628,-2.7431e+05,14
-74550,-2.7385e+05,14
-74497,-2.7361e+05,14
-75406,-2.7361e+05,14
-75401,-2.7353e+05,14
-75058,-2.7297e+05,14
-75575,-2.7198e+05,14
-75202,-2.7102e+05,14
-75618,-2.7065e+05,14
-76627,-2.7196e+05,14
-78540,-2.73e+05,14
-80393,-2.7512e+05,14
-82194,-2.7645e+05,14
-82390,-2.7613e+05,14
-82693,-2.7483e+05,14
-81968,-2.7469e+05,14
-81784,-2.739e+05,14
-81035,-2.7329e+05,14
-80409,-2.7215e+05,14
-80179,-2.7234e+05,14
-79488,-2.7234e+05,14
-80118,-2.7253e+05,14
-79009,-2.7421e+05,14
-78102,-2.7451e+05,14
-77331,-2.7397e+05,14
-76205,-2.7328e+05,14
-76454,-2.7347e+05,14
-75507,-2.742e+05,14
-76899,-2.7421e+05,14
-76407,-2.7513e+05,14
-76311,-2.7509e+05,14
-75357,-2.7502e+05,14
-74628,-2.7431e+05,14
-74550,-2.7385e+05,14
-74497,-2.7361e+05,14
-75406,-2.7361e+05,14
-75401,-2.7353e+05,14
-75058,-2.7297e+05,14
-75575,-2.7198e+05,14
-75202,-2.7102e+05,14
-75618,-2.7065e+05,14
-76627,-2.7196e+05,14
-78540,-2.73e+05,14
-80393,-2.7512e+05,14
-82194,-2.7645e+05,14
-82390,-2.7613e+05,14
-82693,-2.7483e+05,14
-81968,-2.7469e+05,14
-81784,-2.739e+05,14
-81035,-2.7329e+05,14
-80409,-2.7215e+05,14
-80179,-2.7234e+05,14
-79488,-2.7234e+05,14
-80118,-2.7253e+05,14
-79123,-2.7177e+05,14
-79139,-2.7243e+05,14
-78191,-2.7323e+05,14
-77623,-2.7467e+05,14
-78559,-2.7578e+05,14
-78791,-2.7528e+05,14
-77150,-2.7517e+05,14
-76267,-2.7481e+05,14
-75997,-2.7448e+05,14
-74833,-2.7497e+05,14
-75214,-2.7413e+05,14
-75632,-2.7433e+05,14
-74913,-2.7448e+05,14
-75417,-2.7467e+05,14
-75942,-2.7467e+05,14
-75911,-2.7434e+05,14
-76810,-2.7361e+05,14
-77562,-2.7442e+05,14
-77075,-2.7453e+05,14
-78413,-2.7445e+05,14
-78455,-2.7446e+05,14
-79037,-2.7428e+05,14
-78938,-2.7395e+05,14
-79816,-2.7361e+05,14
-79964,-2.7301e+05,14
-79951,-2.726e+05,14
-79742,-2.7261e+05,14
-80187,-2.7312e+05,14
-80083,-2.7306e+05,14
-80206,-2.7327e+05,14
-81556,-2.7374e+05,14
-81499,-2.7323e+05,14
-80110,-2.7329e+05,14
-80100,-2.7345e+05,14
-78848,-2.7322e+05,14
-79577,-2.7381e+05,14
-77762,-2.7429e+05,14
-77114,-2.7459e+05,14
-77342,-2.7486e+05,14
-76367,-2.7425e+05,14
-75919,-2.7429e+05,14
-75452,-2.7444e+05,14
-75233,-2.7487e+05,14
-75355,-2.7494e+05,14
-74949,-2.7503e+05,14
-75111,-2.7484e+05,14
-74879,-2.74e+05,14
-75340,-2.7442e+05,14
-75634,-2.7456e+05,14
-75833,-2.7398e+05,14
-76418,-2.7437e+05,14
-76937,-2.7436e+05,14
-76998,-2.7475e+05,14
-77959,-2.742e+05,14
-78762,-2.7371e+05,14
-79013,-2.7388e+05,14
-79678,-2.7346e+05,14
-80341,-2.7343e+05,14
-80284,-2.7358e+05,14
-81080,-2.7287e+05,14
-80946,-2.7346e+05,14
-80693,-2.7296e+05,14
-80245,-2.729e+05,14
-80858,-2.7337e+05,14
-80076,-2.7351e+05,14
-79787,-2.7277e+05,14
-79448,-2.7363e+05,14
-79272,-2.7334e+05,14
-78975,-2.7393e+05,14
-77937,-2.7318e+05,14
-77815,-2.7433e+05,14
-76878,-2.7394e+05,14
-76535,-2.7403e+05,14
-75672,-2.743e+05,14
-75492,-2.7451e+05,14
-75609,-2.7365e+05,14
-75261,-2.7443e+05,14
-74930,-2.7411e+05,14
-75229,-2.7436e+05,14
-74563,-2.7452e+05,14
-75195,-2.7481e+05,14
-75938,-2.7435e+05,14
-76377,-2.7437e+05,14
-76652,-2.7425e+05,14
-77001,-2.7422e+05,14
-76716,-2.7392e+05,14
-77783,-2.7412e+05,14
-78468,-2.741e+05,14
-78436,-2.7368e+05,14
-79123,-2.7363e+05,14
-79496,-2.7292e+05,14
-79338,-2.7287e+05,14
-80605,-2.7316e+05,14
-81342,-2.7266e+05,14
-80757,-2.7265e+05,14
-80072,-2.7226e+05,14
-80076,-2.7351e+05,14
-79787,-2.7277e+05,14
-79448,-2.7363e+05,14
-79272,-2.7334e+05,14
-78975,-2.7393e+05,14
-77937,-2.7318e+05,14
-77815,-2.7433e+05,14
-76878,-2.7394e+05,14
-76535,-2.7403e+05,14
-75672,-2.743e+05,14
-75492,-2.7451e+05,14
-75609,-2.7365e+05,14
-75261,-2.7443e+05,14
-74930,-2.7411e+05,14
-75229,-2.7436e+05,14
-74563,-2.7452e+05,14
-75195,-2.7481e+05,14
-75938,-2.7435e+05,14
-76377,-2.7437e+05,14
-76652,-2.7425e+05,14
-77001,-2.7422e+05,14
-76716,-2.7392e+05,14
-77783,-2.7412e+05,14
-78468,-2.741e+05,14
-78436,-2.7368e+05,14
-79123,-2.7363e+05,14
-79496,-2.7292e+05,14
-79338,-2.7287e+05,14
-80605,-2.7316e+05,14
-81342,-2.7266e+05,14
-80757,-2.7265e+05,14
-80072,-2.7226e+05,14
-79675,-2.7117e+05,14
-78911,-2.7047e+05,14
-78148,-2.7068e+05,14
-78054,-2.7162e+05,14
-77645,-2.7267e+05,14
-78022,-2.7355e+05,14
-77688,-2.7329e+05,14
-76689,-2.733e+05,14
-76002,-2.737e+05,14
-74631,-2.743e+05,14
-74737,-2.7547e+05,14
-75276,-2.7607e+05,14
-76530,-2.7643e+05,14
-76556,-2.7627e+05,14
-76436,-2.7486e+05,14
-75559,-2.7377e+05,14
-74458,-2.7356e+05,14
-73692,-2.7305e+05,14
-74328,-2.7274e+05,14
-75382,-2.7431e+05,14
-76557,-2.7518e+05,14
-77120,-2.7556e+05,14
-77348,-2.7472e+05,14
-78831,-2.7458e+05,14
-78834,-2.7435e+05,14
-79396,-2.7418e+05,14
-79539,-2.7509e+05,14
-80419,-2.7442e+05,14
-80982,-2.7437e+05,14
-80655,-2.7367e+05,14
-80786,-2.728e+05,14
-80663,-2.7239e+05,14
-81155,-2.7219e+05,14
-80411,-2.7133e+05,14
-80732,-2.719e+05,14
-79460,-2.7144e+05,14
-78534,-2.7186e+05,14
-77952,-2.71e+05,14
-77282,-2.7099e+05,14
-77728,-2.7157e+05,14
-77135,-2.7345e+05,14
-77348,-2.7445e+05,14
-77167,-2.746e+05,14
-77154,-2.7405e+05,14
-76343,-2.746e+05,14
-76142,-2.7466e+05,14
-75957,-2.7328e+05,14
-74940,-2.7399e+05,14
-74167,-2.7418e+05,14
-74761,-2.7459e+05,14
-76108,-2.7514e+05,14
-76350,-2.7537e+05,14
-76557,-2.7518e+05,14
-76989,-2.7541e+05,14
-77069,-2.7368e+05,14
-76707,-2.7321e+05,14
-76644,-2.7362e+05,14
-77616,-2.7337e+05,14
-77940,-2.7355e+05,14
-78284,-2.732e+05,14
-80189,-2.7356e+05,14
-81292,-2.7362e+05,14
-81430,-2.7367e+05,14
-81634,-2.7384e+05,14
-81155,-2.7219e+05,14
-80411,-2.7133e+05,14
-80732,-2.719e+05,14
-79460,-2.7144e+05,14
-78534,-2.7186e+05,14
-77952,-2.71e+05,14
-77282,-2.7099e+05,14
-77728,-2.7157e+05,14
-77135,-2.7345e+05,14
-77348,-2.7445e+05,14
-77167,-2.746e+05,14
-77154,-2.7405e+05,14
-76343,-2.746e+05,14
-76142,-2.7466e+05,14
-75957,-2.7328e+05,14
-74940,-2.7399e+05,14
-74167,-2.7418e+05,14
-74761,-2.7459e+05,14
-76108,-2.7514e+05,14
-76350,-2.7537e+05,14
-76557,-2.7518e+05,14
-76989,-2.7541e+05,14
-77069,-2.7368e+05,14
-76707,-2.7321e+05,14
-76644,-2.7362e+05,14
-77616,-2.7337e+05,14
-77940,-2.7355e+05,14
-78284,-2.732e+05,14
-80189,-2.7356e+05,14
-81292,-2.7362e+05,14
-81430,-2.7367e+05,14
-81634,-2.7384e+05,14
-81481,-2.7402e+05,14
-81525,-2.7393e+05,14
-81770,-2.7329e+05,14
-81505,-2.7313e+05,14
-80910,-2.7321e+05,14
-80544,-2.7315e+05,14
-79826,-2.732e+05,14
-79397,-2.7337e+05,14
-79435,-2.737e+05,14
-77690,-2.7382e+05,14
-77855,-2.7383e+05,14
-77677,-2.7374e+05,14
-76828,-2.7386e+05,14
-75724,-2.7449e+05,14
-75201,-2.7423e+05,14
-75435,-2.7493e+05,14
-74953,-2.7457e+05,14
-75065,-2.7495e+05,14
-75697,-2.7415e+05,14
-75468,-2.742e+05,14
-75317,-2.736e+05,14
-75308,-2.7359e+05,14
-76106,-2.7418e+05,14
-76168,-2.7323e+05,14
-76449,-2.7343e+05,14
-76414,-2.7318e+05,14
-77865,-2.7288e+05,14
-77839,-2.7265e+05,14
-78045,-2.7228e+05,14
-78909,-2.7243e+05,14
-78890,-2.7238e+05,14
-80041,-2.7269e+05,14
-81096,-2.7304e+05,14
-81236,-2.7358e+05,14
-80936,-2.7366e+05,14
-80667,-2.734e+05,14
-80562,-2.7306e+05,14
-80780,-2.7315e+05,14
-80324,-2.7332e+05,14
-80033,-2.7404e+05,14
-79645,-2.7353e+05,14
-79767,-2.7382e+05,14
-78977,-2.744e+05,14
-78618,-2.7461e+05,14
-77871,-2.7478e+05,14
-77311,-2.7475e+05,14
-76396,-2.7446e+05,14
-75902,-2.7473e+05,14
-75546,-2.7443e+05,14
-75188,-2.7384e+05,14
-75206,-2.7429e+05,14
-74259,-2.7377e+05,14
-74753,-2.7384e+05,14
-74247,-2.7363e+05,14
-74276,-2.7365e+05,14
-75026,-2.7353e+05,14
-75541,-2.7352e+05,14
-76593,-2.7422e+05,14
-76799,-2.7307e+05,14
-77771,-2.7372e+05,14
-78286,-2.7409e+05,14
-79163,-2.7409e+05,14
-79278,-2.7286e+05,14
-80263,-2.732e+05,14
-81096,-2.7304e+05,14
-81236,-2.7358e+05,14
-80936,-2.7366e+05,14
-80667,-2.734e+05,14
-80562,-2.7306e+05,14
-80780,-2.7315e+05,14
-80324,-2.7332e+05,14
-80033,-2.7404e+05,14
-79645,-2.7353e+05,14
-79767,-2.7382e+05,14
-78977,-2.744e+05,14
-78618,-2.7461e+05,14
-77871,-2.7478e+05,14
-77311,-2.7475e+05,14
-76396,-2.7446e+05,14
-75902,-2.7473e+05,14
-75546,-2.7443e+05,14
-75188,-2.7384e+05,14
-75206,-2.7429e+05,14
-74259,-2.7377e+05,14
-74753,-2.7384e+05,14
-74247,-2.7363e+05,14
-74276,-2.7365e+05,14
-75026,-2.7353e+05,14
-75541,-2.7352e+05,14
-76593,-2.7422e+05,14
-76799,-2.7307e+05,14
-77771,-2.7372e+05,14
-78286,-2.7409e+05,14
-79163,-2.7409e+05,14
-79278,-2.7286e+05,14
-80263,-2.732e+05,14
-80578,-2.7317e+05,14
-80349,-2.7272e+05,14
-81025,-2.7248e+05,14
-80959,-2.7301e+05,14
-81251,-2.7316e+05,14
-80728,-2.7365e+05,14
-80895,-2.737e+05,14
-81195,-2.7252e+05,14
-79926,-2.7279e+05,14
-79730,-2.7391e+05,14
-79062,-2.7434e+05,14
-79758,-2.7463e+05,14
-78732,-2.7462e+05,14
-77396,-2.73e+05,14
-75614,-2.7314e+05,14
-75360,-2.7348e+05,14
-74421,-2.7354e+05,14
-73818,-2.7381e+05,14
-73382,-2.7475e+05,14
-74049,-2.7538e+05,14
-74830,-2.7525e+05,14
-74604,-2.7476e+05,14
-74703,-2.7444e+05,14
-74740,-2.7463e+05,14
-75009,-2.7458e+05,14
-75242,-2.7351e+05,14
-76697,-2.7366e+05,14
-76573,-2.7447e+05,14
-77582,-2.7514e+05,14
-78717,-2.7365e+05,14
-78783,-2.7269e+05,14
-78219,-2.7205e+05,14
-79999,-2.7121e+05,14
-80101,-2.722e+05,14
-79200,-2.7127e+05,14
-80094,-2.7143e+05,14
-80005,-2.7217e+05,14
-80204,-2.7186e+05,14
-80202,-2.7176e+05,14
-79693,-2.7165e+05,14
-79572,-2.7108e+05,14
-79240,-2.708e+05,14
-79023,-2.7142e+05,14
-79183,-2.7225e+05,14
-78593,-2.7279e+05,14
-77525,-2.7303e+05,14
-76989,-2.7196e+05,14
-76725,-2.7211e+05,14
-76545,-2.7213e+05,14
-74724,-2.7232e+05,14
-74015,-2.7123e+05,14
-73543,-2.7202e+05,14
-74038,-2.7342e+05,14
-75099,-2.7317e+05,14
-74820,-2.7251e+05,14
-74854,-2.72e+05,14
-74727,-2.7289e+05,14
-75654,-2.7455e+05,14
-75487,-2.7525e+05,14
-76668,-2.7596e+05,14
-78156,-2.7568e+05,14
-77243,-2.7544e+05,14
-78103,-2.7324e+05,14
-78395,-2.7222e+05,14
-79999,-2.7121e+05,14
-80101,-2.722e+05,14
-79200,-2.7127e+05,14
-80094,-2.7143e+05,14
-80005,-2.7217e+05,14
-80204,-2.7186e+05,14
-80202,-2.7176e+05,14
-79693,-2.7165e+05,14
-79572,-2.7108e+05,14
-79240,-2.708e+05,14
-79023,-2.7142e+05,14
-79183,-2.7225e+05,14
-78593,-2.7279e+05,14
-77525,-2.7303e+05,14
-76989,-2.7196e+05,14
-76725,-2.7211e+05,14
-76545,-2.7213e+05,14
-74724,-2.7232e+05,14
-74015,-2.7123e+05,14
-73543,-2.7202e+05,14
-74038,-2.7342e+05,14
-75099,-2.7317e+05,14
-74820,-2.7251e+05,14
-74854,-2.72e+05,14
-74727,-2.7289e+05,14
-75654,-2.7455e+05,14
-75487,-2.7525e+05,14
-76668,-2.7596e+05,14
-78156,-2.7568e+05,14
-77243,-2.7544e+05,14
-78103,-2.7324e+05,14
-78395,-2.7222e+05,14
-77980,-2.7294e+05,14
-79792,-2.7421e+05,14
-80065,-2.7473e+05,14
-80815,-2.7461e+05,14
-81046,-2.7428e+05,14
-80320,-2.7431e+05,14
-81518,-2.744e+05,14
-81564,-2.743e+05,14
-81775,-2.7436e+05,14
-82076,-2.7391e+05,14
-81095,-2.7381e+05,14
-80262,-2.7273e+05,14
-79127,-2.7294e+05,14
-79073,-2.7346e+05,14
-79377,-2.7298e+05,14
-78068,-2.7338e+05,14
-77726,-2.7472e+05,14
-77694,-2.7439e+05,14
-76797,-2.7466e+05,14
-76493,-2.7457e+05,14
-75750,-2.7373e+05,14
-75385,-2.7388e+05,14
-75024,-2.74e+05,14
-75207,-2.7385e+05,14
-75464,-2.7332e+05,14
-75004,-2.7369e+05,14
-74625,-2.7322e+05,14
-75228,-2.7329e+05,14
-75405,-2.7326e+05,14
-76185,-2.7346e+05,14
-76026,-2.7333e+05,14
-76887,-2.7328e+05,14
-76779,-2.7271e+05,14
-77248,-2.7388e+05,14
-77905,-2.7324e+05,14
-79720,-2.7245e+05,14
-80442,-2.7247e+05,14
-80518,-2.7348e+05,14
-81947,-2.7426e+05,14
-81646,-2.751e+05,14
-81704,-2.7456e+05,14
-81671,-2.7386e+05,14
-80225,-2.7364e+05,14
-80933,-2.741e+05,14
-79995,-2.7411e+05,14
-79993,-2.7439e+05,14
-79615,-2.7415e+05,14
-79017,-2.7423e+05,14
-78114,-2.7381e+05,14
-77916,-2.7388e+05,14
-77005,-2.7415e+05,14
-76793,-2.7465e+05,14
-76594,-2.7387e+05,14
-75763,-2.7421e+05,14
-75595,-2.7406e+05,14
-75570,-2.7391e+05,14
-75105,-2.739e+05,14
-75084,-2.7371e+05,14
-75242,-2.744e+05,14
-75279,-2.7434e+05,14
-76121,-2.7451e+05,14
-75974,-2.7406e+05,14
-76954,-2.742e+05,14
-76958,-2.7382e+05,14
-76649,-2.7335e+05,14
-78043,-2.7354e+05,14
-78299,-2.7322e+05,14
-78837,-2.7267e+05,14
-79478,-2.7278e+05,14
-80678,-2.7333e+05,14
-80176,-2.7375e+05,14
-80582,-2.7304e+05,14
-79882,-2.7268e+05,14
-80075,-2.7282e+05,14
-80096,-2.7194e+05,14
-79397,-2.7216e+05,14
-79060,-2.7183e+05,14
-78604,-2.7281e+05,14
-78807,-2.7276e+05,14
-78371,-2.7337e+05,14
-77781,-2.7262e+05,14
-77092,-2.733e+05,14
-77336,-2.7398e+05,14
-77817,-2.7399e+05,14
-77795,-2.7428e+05,14
-76098,-2.7366e+05,14
-75443,-2.7412e+05,14
-75984,-2.7441e+05,14
-75035,-2.7376e+05,14
-74604,-2.7196e+05,14
-74076,-2.7077e+05,14
-73103,-2.719e+05,14
-73860,-2.7314e+05,14
-75663,-2.7424e+05,14
-76391,-2.7384e+05,14
-77042,-2.7407e+05,14
-77528,-2.7411e+05,14
-76884,-2.7397e+05,14
-77100,-2.7267e+05,14
-77018,-2.7199e+05,14
-77430,-2.7211e+05,14
-78276,-2.7405e+05,14
-80683,-2.7584e+05,14
-82144,-2.7594e+05,14
-82066,-2.7458e+05,14
-81694,-2.7309e+05,14
-81650,-2.7229e+05,14
-80448,-2.7407e+05,14
-80743,-2.746e+05,14
-80402,-2.7417e+05,14
-80790,-2.7418e+05,14
-80475,-2.742e+05,14
-80206,-2.7466e+05,14
-79229,-2.7378e+05,14
-78780,-2.739e+05,14
-77709,-2.7339e+05,14
-76916,-2.7314e+05,14
-76998,-2.7387e+05,14
-76773,-2.7398e+05,14
-76162,-2.745e+05,14
-76266,-2.7483e+05,14
-76155,-2.7475e+05,14
-75415,-2.7469e+05,14
-74901,-2.7419e+05,14
-74427,-2.7423e+05,14
-74583,-2.7346e+05,14
-74822,-2.7308e+05,14
-74982,-2.731e+05,14
-75060,-2.7272e+05,14
-75424,-2.7194e+05,14
-75976,-2.7247e+05,14
-77211,-2.7258e+05,14
-78288,-2.73e+05,14
-79083,-2.7313e+05,14
-78514,-2.729e+05,14
-79888,-2.7322e+05,14
-80193,-2.7312e+05,14
-80664,-2.7335e+05,14
-80698,-2.7315e+05,14
-79947,-2.7237e+05,14
-79376,-2.7249e+05,14
-79345,-2.7304e+05,14
-80060,-2.7358e+05,14
-80357,-2.7315e+05,14
-79319,-2.7161e+05,14
-78737,-2.7143e+05,14
-77742,-2.718e+05,14
-78580,-2.7157e+05,14
-77678,-2.7303e+05,14
-77498,-2.7373e+05,14
-77096,-2.7457e+05,14
-76096,-2.7392e+05,14
-75574,-2.7442e+05,14
-75819,-2.7426e+05,14
-76141,-2.7411e+05,14
-75133,-2.7415e+05,14
-75741,-2.7339e+05,14
-75517,-2.7253e+05,14
-74852,-2.724e+05,14
-74742,-2.7247e+05,14
-75318,-2.7283e+05,14
-75272,-2.7381e+05,14
-77340,-2.7437e+05,14
-77640,-2.7477e+05,14
-76902,-2.7479e+05,14
-78062,-2.7402e+05,14
-78754,-2.7297e+05,14
-78460,-2.7369e+05,14
-79521,-2.7291e+05,14
-79850,-2.7213e+05,14
-80260,-2.7265e+05,14
-80177,-2.7323e+05,14
-80571,-2.7289e+05,14
-79874,-2.7329e+05,14
-80730,-2.7311e+05,14
-80293,-2.7204e+05,14
-79614,-2.7249e+05,14
-80323,-2.7333e+05,14
-80328,-2.7415e+05,14
-80041,-2.7447e+05,14
-79675,-2.7393e+05,14
-78237,-2.7425e+05,14
-77420,-2.7415e+05,14
-76581,-2.7346e+05,14
-76369,-2.73e+05,14
-75752,-2.7364e+05,14
-75172,-2.7405e+05,14
-75589,-2.7383e+05,14
-75619,-2.7383e+05,14
-75454,-2.7367e+05,14
-75194,-2.7332e+05,14
-74832,-2.7285e+05,14
-74972,-2.7373e+05,14
-76100,-2.7416e+05,14
-77750,-2.7416e+05,14
-77228,-2.739e+05,14
-76901,-2.7364e+05,14
-76477,-2.7375e+05,14
-78043,-2.7336e+05,14
-78063,-2.7388e+05,14
-78886,-2.7408e+05,14
-79394,-2.7431e+05,14
-80145,-2.7398e+05,14
-80566,-2.7364e+05,14
-80585,-2.7338e+05,14
-80657,-2.7376e+05,14
-80490,-2.7333e+05,14
-80393,-2.73e+05,14
-80478,-2.7327e+05,14
-80376,-2.7253e+05,14
-80337,-2.72e+05,14
-79514,-2.7203e+05,14
-78717,-2.7172e+05,14
-79003,-2.724e+05,14
-78997,-2.7253e+05,14
-77837,-2.7238e+05,14
-76794,-2.7266e+05,14
-76190,-2.727e+05,14
-75270,-2.733e+05,14
-74565,-2.736e+05,14
-74660,-2.7335e+05,14
-74768,-2.7407e+05,14
-75038,-2.7499e+05,14
-75271,-2.7449e+05,14
-75108,-2.7504e+05,14
-74889,-2.7494e+05,14
-75174,-2.7458e+05,14
-76131,-2.7395e+05,14
-76163,-2.7352e+05,14
-76749,-2.7342e+05,14
-76858,-2.7398e+05,14
-78561,-2.74e+05,14
-79251,-2.7418e+05,14
-79585,-2.7386e+05,14
-79011,-2.7294e+05,14
-80218,-2.7334e+05,14
-80274,-2.7281e+05,14
-80356,-2.7309e+05,14
-80715,-2.7265e+05,14
-80773,-2.7293e+05,14
-80363,-2.7316e+05,14
-80490,-2.7339e+05,14
-80797,-2.7337e+05,14
-80407,-2.7325e+05,14
-80195,-2.7385e+05,14
-79697,-2.7365e+05,14
-79452,-2.7414e+05,14
-79450,-2.7408e+05,14
-78020,-2.7335e+05,14
-77419,-2.7322e+05,14
-77078,-2.7454e+05,14
-75822,-2.7435e+05,14
-74593,-2.7419e+05,14
-73825,-2.7223e+05,14
-74181,-2.7189e+05,14
-74066,-2.7364e+05,14
-75009,-2.7374e+05,14
-74936,-2.7419e+05,14
-74438,-2.7348e+05,14
-74479,-2.7365e+05,14
-75781,-2.7433e+05,14
-77468,-2.748e+05,14
-79433,-2.7619e+05,14
-78914,-2.7579e+05,14
-78379,-2.7488e+05,14
-78335,-2.74e+05,14
-78310,-2.7344e+05,14
-78496,-2.7346e+05,14
-78933,-2.7283e+05,14
-79274,-2.7162e+05,14
-79691,-2.7223e+05,14
-80094,-2.7269e+05,14
-80600,-2.7109e+05,14
-80357,-2.71e+05,14
-80051,-2.7147e+05,14
-80131,-2.7237e+05,14
-80714,-2.7235e+05,14
-80522,-2.7156e+05,14
-78733,-2.7098e+05,14
-77407,-2.7272e+05,14
-77959,-2.7435e+05,14
-78686,-2.7495e+05,14
-78737,-2.7542e+05,14
-78330,-2.7523e+05,14
-78103,-2.7513e+05,14
-77142,-2.7529e+05,14
-76664,-2.7482e+05,14
-76221,-2.7429e+05,14
-75009,-2.7374e+05,14
-74936,-2.7419e+05,14
-74438,-2.7348e+05,14
-74479,-2.7365e+05,14
-75781,-2.7433e+05,14
-77468,-2.748e+05,14
-79433,-2.7619e+05,14
-78914,-2.7579e+05,14
-78379,-2.7488e+05,14
-78335,-2.74e+05,14
-78310,-2.7344e+05,14
-78496,-2.7346e+05,14
-78933,-2.7283e+05,14
-79274,-2.7162e+05,14
-79691,-2.7223e+05,14
-80094,-2.7269e+05,14
-80600,-2.7109e+05,14
-80357,-2.71e+05,14
-80051,-2.7147e+05,14
-80131,-2.7237e+05,14
-80714,-2.7235e+05,14
-80522,-2.7156e+05,14
-78733,-2.7098e+05,14
-77407,-2.7272e+05,14
-77959,-2.7435e+05,14
-78686,-2.7495e+05,14
-78737,-2.7542e+05,14
-78330,-2.7523e+05,14
-78103,-2.7513e+05,14
-77142,-2.7529e+05,14
-76664,-2.7482e+05,14
-76221,-2.7429e+05,14
-75009,-2.7374e+05,14
-74936,-2.7419e+05,14
-74438,-2.7348e+05,14
-74479,-2.7365e+05,14
-75781,-2.7433e+05,14
-77468,-2.748e+05,14
-79433,-2.7619e+05,14
-78914,-2.7579e+05,14
-78379,-2.7488e+05,14
-78335,-2.74e+05,14
-78310,-2.7344e+05,14
-78496,-2.7346e+05,14
-78933,-2.7283e+05,14
-79274,-2.7162e+05,14
-79691,-2.7223e+05,14
-80094,-2.7269e+05,14
-80600,-2.7109e+05,14
-80357,-2.71e+05,14
-80051,-2.7147e+05,14
-80131,-2.7237e+05,14
-80714,-2.7235e+05,14
-80522,-2.7156e+05,14
-78733,-2.7098e+05,14
-77407,-2.7272e+05,14
-77959,-2.7435e+05,14
-78686,-2.7495e+05,14
-78737,-2.7542e+05,14
-78330,-2.7523e+05,14
-78103,-2.7513e+05,14
-77142,-2.7529e+05,14
-76664,-2.7482e+05,14
-76221,-2.7429e+05,14
-75009,-2.7374e+05,14
-74936,-2.7419e+05,14
-74438,-2.7348e+05,14
-74479,-2.7365e+05,14
-75781,-2.7433e+05,14
-77468,-2.748e+05,14
-79433,-2.7619e+05,14
-78914,-2.7579e+05,14
-78379,-2.7488e+05,14
-78335,-2.74e+05,14
-78310,-2.7344e+05,14
-78496,-2.7346e+05,14
-78933,-2.7283e+05,14
-79274,-2.7162e+05,14
-79691,-2.7223e+05,14
-80094,-2.7269e+05,14
-80600,-2.7109e+05,14
-80357,-2.71e+05,14
-80051,-2.7147e+05,14
-80131,-2.7237e+05,14
-80714,-2.7235e+05,14
-80522,-2.7156e+05,14
-78733,-2.7098e+05,14
-77407,-2.7272e+05,14
-77959,-2.7435e+05,14
-78686,-2.7495e+05,14
-78737,-2.7542e+05,14
-78330,-2.7523e+05,14
-78103,-2.7513e+05,14
-77142,-2.7529e+05,14
-76664,-2.7482e+05,14
-76221,-2.7429e+05,14
-75600,-2.7475e+05,14
-75664,-2.742e+05,14
-75799,-2.7465e+05,14
-75983,-2.7438e+05,14
-75483,-2.7421e+05,14
-76105,-2.7389e+05,14
-75912,-2.7428e+05,14
-76612,-2.7345e+05,14
-76501,-2.7326e+05,14
-76094,-2.7295e+05,14
-77450,-2.7366e+05,14
-77987,-2.7275e+05,14
-78514,-2.734e+05,14
-78839,-2.7275e+05,14
-80195,-2.7249e+05,14
-79824,-2.7254e+05,14
-80235,-2.7312e+05,14
-80574,-2.732e+05,14
-81055,-2.7304e+05,14
-81007,-2.7269e+05,14
-81028,-2.7236e+05,14
-80264,-2.7242e+05,14
-79948,-2.7208e+05,14
-79571,-2.7211e+05,14
-78420,-2.7241e+05,14
-78238,-2.7236e+05,14
-78014,-2.7216e+05,14
-75715,-2.7191e+05,14
-75149,-2.7206e+05,14
-75168,-2.7282e+05,14
-74551,-2.7324e+05,14
-75592,-2.7236e+05,14
-75600,-2.7475e+05,14
-75664,-2.742e+05,14
-75799,-2.7465e+05,14
-75983,-2.7438e+05,14
-75483,-2.7421e+05,14
-76105,-2.7389e+05,14
-75912,-2.7428e+05,14
-76612,-2.7345e+05,14
-76501,-2.7326e+05,14
-76094,-2.7295e+05,14
-77450,-2.7366e+05,14
-77987,-2.7275e+05,14
-78514,-2.734e+05,14
-78839,-2.7275e+05,14
-80195,-2.7249e+05,14
-79824,-2.7254e+05,14
-80235,-2.7312e+05,14
-80574,-2.732e+05,14
-81055,-2.7304e+05,14
-81007,-2.7269e+05,14
-81028,-2.7236e+05,14
-80264,-2.7242e+05,14
-79948,-2.7208e+05,14
-79571,-2.7211e+05,14
-78420,-2.7241e+05,14
-78238,-2.7236e+05,14
-78014,-2.7216e+05,14
-75715,-2.7191e+05,14
-75149,-2.7206e+05,14
-75168,-2.7282e+05,14
-74551,-2.7324e+05,14
-75592,-2.7236e+05,14
-75041,-2.7233e+05,14
-73847,-2.7105e+05,14
-72970,-2.7198e+05,14
-74017,-2.7457e+05,14
-76590,-2.7713e+05,14
-77901,-2.7726e+05,14
-77464,-2.7529e+05,14
-76402,-2.7459e+05,14
-75917,-2.742e+05,14
-76015,-2.7395e+05,14
-76712,-2.7439e+05,14
-77987,-2.7404e+05,14
-78517,-2.7416e+05,14
-78981,-2.7379e+05,14
-78790,-2.7284e+05,14
-80167,-2.7325e+05,14
-80319,-2.7393e+05,14
-80388,-2.7404e+05,14
-80689,-2.7377e+05,14
-81154,-2.736e+05,14
-80716,-2.7308e+05,14
-80878,-2.7311e+05,14
-80391,-2.7319e+05,14
-80254,-2.7286e+05,14
-79347,-2.7308e+05,14
-78873,-2.7323e+05,14
-78310,-2.7362e+05,14
-79081,-2.7412e+05,14
-78420,-2.7406e+05,14
-77684,-2.7459e+05,14
-77278,-2.7394e+05,14
-77018,-2.7425e+05,14
-76286,-2.7459e+05,14
-75253,-2.7452e+05,14
-74751,-2.7461e+05,14
-75211,-2.7434e+05,14
-75078,-2.7489e+05,14
-75074,-2.7403e+05,14
-75161,-2.7486e+05,14
-75284,-2.7453e+05,14
-75232,-2.7459e+05,14
-75575,-2.7379e+05,14
-76351,-2.7379e+05,14
-75596,-2.735e+05,14
-76083,-2.7385e+05,14
-76553,-2.73e+05,14
-77173,-2.7275e+05,14
-77669,-2.7184e+05,14
-77995,-2.7194e+05,14
-78033,-2.7174e+05,14
-77809,-2.7164e+05,14
-78241,-2.7117e+05,14
-78421,-2.7192e+05,14
-78566,-2.7106e+05,14
-78133,-2.7154e+05,14
-78277,-2.715e+05,14
-79442,-2.7288e+05,14
-80788,-2.737e+05,14
-82608,-2.747e+05,14
-81355,-2.7401e+05,14
-80456,-2.7346e+05,14
-78716,-2.7328e+05,14
-77740,-2.7255e+05,14
-76982,-2.7287e+05,14
-78566,-2.7106e+05,14
-78133,-2.7154e+05,14
-78277,-2.715e+05,14
-79442,-2.7288e+05,14
-80788,-2.737e+05,14
-82608,-2.747e+05,14
-81355,-2.7401e+05,14
-80456,-2.7346e+05,14
-78716,-2.7328e+05,14
-77740,-2.7255e+05,14
-76982,-2.7287e+05,14
-76615,-2.7388e+05,14
-76203,-2.7394e+05,14
-75671,-2.744e+05,14
-76255,-2.7471e+05,14
-74949,-2.746e+05,14
-75196,-2.7461e+05,14
-75401,-2.7418e+05,14
-75503,-2.7456e+05,14
-75339,-2.7385e+05,14
-75366,-2.7371e+05,14
-76340,-2.7416e+05,14
-76570,-2.7378e+05,14
-76465,-2.7348e+05,14
-76611,-2.737e+05,14
-78169,-2.7317e+05,14
-77999,-2.73e+05,14
-78840,-2.7309e+05,14
-78840,-2.7322e+05,14
-79686,-2.7335e+05,14
-80055,-2.7291e+05,14
-80127,-2.7281e+05,14
-80617,-2.7288e+05,14
-80385,-2.7287e+05,14
-80442,-2.7306e+05,14
-79946,-2.7323e+05,14
-80536,-2.7251e+05,14
-80057,-2.7297e+05,14
-79622,-2.7304e+05,14
-78878,-2.7321e+05,14
-78637,-2.732e+05,14
-79441,-2.734e+05,14
-78166,-2.7325e+05,14
-76619,-2.7353e+05,14
-76510,-2.737e+05,14
-76445,-2.736e+05,14
-75862,-2.7427e+05,14
-74857,-2.7401e+05,14
-74902,-2.7406e+05,14
-74467,-2.7417e+05,14
-74881,-2.7452e+05,14
-74560,-2.7441e+05,14
-75435,-2.7408e+05,14
-74985,-2.7359e+05,14
-75791,-2.742e+05,14
-75996,-2.7409e+05,14
-76268,-2.7355e+05,14
-76700,-2.7359e+05,14
-77250,-2.7328e+05,14
-77380,-2.7343e+05,14
-77994,-2.7281e+05,14
-79088,-2.7319e+05,14
-79789,-2.7292e+05,14
-79772,-2.7192e+05,14
-80214,-2.7224e+05,14
-80392,-2.7243e+05,14
-80714,-2.7247e+05,14
-80124,-2.7313e+05,14
-80591,-2.7224e+05,14
-79819,-2.7266e+05,14
-79924,-2.7271e+05,14
-80125,-2.73e+05,14
-79055,-2.7315e+05,14
-79047,-2.7333e+05,14
-78949,-2.7342e+05,14
-77403,-2.7335e+05,14
-77378,-2.7344e+05,14
-77198,-2.7353e+05,14
-76483,-2.7312e+05,14
-75353,-2.7298e+05,14
-75600,-2.7401e+05,14
-74832,-2.7434e+05,14
-74824,-2.7389e+05,14
-74553,-2.7364e+05,14
-74144,-2.7347e+05,14
-74882,-2.7348e+05,14
-74945,-2.7326e+05,14
-75079,-2.7372e+05,14
-75382,-2.7354e+05,14
-76130,-2.7389e+05,14
-76922,-2.7369e+05,14
-76524,-2.7359e+05,14
-77154,-2.7218e+05,14
-77666,-2.7298e+05,14
-77892,-2.7244e+05,14
-78963,-2.7286e+05,14
-79809,-2.7233e+05,14
-78653,-2.7214e+05,14
-78767,-2.7166e+05,14
-78741,-2.7155e+05,14
-78499,-2.7151e+05,14
-78915,-2.7199e+05,14
-79598,-2.7322e+05,14
-80513,-2.7313e+05,14
-80407,-2.7355e+05,14
-80008,-2.7377e+05,14
-79100,-2.7359e+05,14
-77403,-2.7335e+05,14
-77378,-2.7344e+05,14
-77198,-2.7353e+05,14
-76483,-2.7312e+05,14
-75353,-2.7298e+05,14
-75600,-2.7401e+05,14
-74832,-2.7434e+05,14
-74824,-2.7389e+05,14
-74553,-2.7364e+05,14
-74144,-2.7347e+05,14
-74882,-2.7348e+05,14
-74945,-2.7326e+05,14
-75079,-2.7372e+05,14
-75382,-2.7354e+05,14
-76130,-2.7389e+05,14
-76922,-2.7369e+05,14
-76524,-2.7359e+05,14
-77154,-2.7218e+05,14
-77666,-2.7298e+05,14
-77892,-2.7244e+05,14
-78963,-2.7286e+05,14
-79809,-2.7233e+05,14
-78653,-2.7214e+05,14
-78767,-2.7166e+05,14
-78741,-2.7155e+05,14
-78499,-2.7151e+05,14
-78915,-2.7199e+05,14
-79598,-2.7322e+05,14
-80513,-2.7313e+05,14
-80407,-2.7355e+05,14
-80008,-2.7377e+05,14
-79100,-2.7359e+05,14
-77937,-2.7353e+05,14
-77325,-2.7294e+05,14
-77220,-2.7302e+05,14
-76905,-2.7384e+05,14
-77946,-2.7415e+05,14
-76863,-2.735e+05,14
-75882,-2.7466e+05,14
-75722,-2.7441e+05,14
-75391,-2.7365e+05,14
-74925,-2.7419e+05,14
-75438,-2.747e+05,14
-75564,-2.7378e+05,14
-75600,-2.7438e+05,14
-75901,-2.7465e+05,14
-76194,-2.7452e+05,14
-76729,-2.7363e+05,14
-76374,-2.7357e+05,14
-76356,-2.7313e+05,14
-76518,-2.7279e+05,14
-76591,-2.7225e+05,14
-77253,-2.7178e+05,14
-77028,-2.7103e+05,14
-77398,-2.7146e+05,14
-77648,-2.715e+05,14
-77764,-2.6989e+05,14
-76585,-2.6888e+05,14
-76613,-2.6949e+05,14
-78079,-2.7163e+05,14
-79976,-2.7237e+05,14
-82122,-2.7228e+05,14
-81294,-2.7304e+05,14
-80556,-2.7407e+05,14
-79967,-2.7472e+05,14
-79285,-2.742e+05,14
-78709,-2.738e+05,14
-78080,-2.7388e+05,14
-77436,-2.7413e+05,14
-77052,-2.7381e+05,14
-76215,-2.735e+05,14
-75063,-2.7287e+05,14
-74350,-2.7338e+05,14
-74174,-2.7372e+05,14
-75492,-2.7497e+05,14
-76150,-2.7592e+05,14
-76994,-2.7548e+05,14
-76834,-2.7496e+05,14
-75509,-2.7474e+05,14
-75625,-2.7457e+05,14
-75863,-2.7383e+05,14
-76561,-2.7372e+05,14
-77045,-2.7347e+05,14
-77519,-2.7358e+05,14
-78660,-2.7277e+05,14
-78901,-2.7298e+05,14
-78889,-2.7221e+05,14
-80238,-2.7358e+05,14
-80557,-2.7376e+05,14
-80479,-2.7311e+05,14
-80356,-2.7274e+05,14
-80316,-2.7271e+05,14
-80340,-2.7292e+05,14
-80950,-2.7274e+05,14
-80410,-2.7293e+05,14
-80359,-2.7262e+05,14
-79967,-2.7472e+05,14
-79285,-2.742e+05,14
-78709,-2.738e+05,14
-78080,-2.7388e+05,14
-77436,-2.7413e+05,14
-77052,-2.7381e+05,14
-76215,-2.735e+05,14
-75063,-2.7287e+05,14
-74350,-2.7338e+05,14
-74174,-2.7372e+05,14
-75492,-2.7497e+05,14
-76150,-2.7592e+05,14
-76994,-2.7548e+05,14
-76834,-2.7496e+05,14
-75509,-2.7474e+05,14
-75625,-2.7457e+05,14
-75863,-2.7383e+05,14
-76561,-2.7372e+05,14
-77045,-2.7347e+05,14
-77519,-2.7358e+05,14
-78660,-2.7277e+05,14
-78901,-2.7298e+05,14
-78889,-2.7221e+05,14
-80238,-2.7358e+05,14
-80557,-2.7376e+05,14
-80479,-2.7311e+05,14
-80356,-2.7274e+05,14
-80316,-2.7271e+05,14
-80340,-2.7292e+05,14
-80950,-2.7274e+05,14
-80410,-2.7293e+05,14
-80359,-2.7262e+05,14
-80114,-2.7287e+05,14
-78787,-2.7275e+05,14
-78717,-2.7354e+05,14
-79376,-2.7341e+05,14
-77473,-2.7311e+05,14
-77239,-2.7334e+05,14
-77002,-2.7401e+05,14
-76525,-2.7386e+05,14
-75819,-2.7429e+05,14
-75375,-2.7476e+05,14
-75235,-2.7461e+05,14
-75305,-2.7491e+05,14
-75542,-2.7483e+05,14
-75002,-2.7482e+05,14
-75396,-2.7477e+05,14
-75139,-2.7515e+05,14
-76081,-2.7515e+05,14
-75980,-2.7523e+05,14
-76681,-2.7483e+05,14
-77009,-2.7392e+05,14
-76642,-2.7421e+05,14
-77645,-2.7362e+05,14
-78513,-2.7344e+05,14
-78717,-2.7274e+05,14
-78884,-2.7233e+05,14
-78988,-2.7203e+05,14
-79149,-2.7238e+05,14
-80155,-2.7226e+05,14
-80019,-2.7207e+05,14
-79777,-2.7175e+05,14
-80760,-2.7213e+05,14
-80536,-2.7197e+05,14
-80114,-2.7287e+05,14
-78787,-2.7275e+05,14
-78717,-2.7354e+05,14
-79376,-2.7341e+05,14
-77473,-2.7311e+05,14
-77239,-2.7334e+05,14
-77002,-2.7401e+05,14
-76525,-2.7386e+05,14
-75819,-2.7429e+05,14
-75375,-2.7476e+05,14
-75235,-2.7461e+05,14
-75305,-2.7491e+05,14
-75542,-2.7483e+05,14
-75002,-2.7482e+05,14
-75396,-2.7477e+05,14
-75139,-2.7515e+05,14
-76081,-2.7515e+05,14
-75980,-2.7523e+05,14
-76681,-2.7483e+05,14
-77009,-2.7392e+05,14
-76642,-2.7421e+05,14
-77645,-2.7362e+05,14
-78513,-2.7344e+05,14
-78717,-2.7274e+05,14
-78884,-2.7233e+05,14
-78988,-2.7203e+05,14
-79149,-2.7238e+05,14
-80155,-2.7226e+05,14
-80019,-2.7207e+05,14
-79777,-2.7175e+05,14
-80760,-2.7213e+05,14
-80536,-2.7197e+05,14
-80594,-2.7162e+05,14
-79907,-2.7178e+05,14
-79764,-2.7264e+05,14
-79302,-2.7297e+05,14
-78857,-2.728e+05,14
-78413,-2.7272e+05,14
-77399,-2.7319e+05,14
-76727,-2.734e+05,14
-76427,-2.7364e+05,14
-75408,-2.7309e+05,14
-75637,-2.7405e+05,14
-76162,-2.7352e+05,14
-75107,-2.7374e+05,14
-75072,-2.7408e+05,14
-74950,-2.7331e+05,14
-74977,-2.7356e+05,14
-74940,-2.7367e+05,14
-75304,-2.7299e+05,14
-75808,-2.7331e+05,14
-76317,-2.7316e+05,14
-76738,-2.7321e+05,14
-76776,-2.7329e+05,14
-77784,-2.7319e+05,14
-78295,-2.7232e+05,14
-79171,-2.7242e+05,14
-79053,-2.726e+05,14
-79931,-2.7238e+05,14
-79995,-2.7193e+05,14
-80433,-2.7254e+05,14
-80379,-2.7216e+05,14
-79974,-2.7259e+05,14
-80860,-2.7246e+05,14
-80157,-2.7183e+05,14
-79687,-2.7235e+05,14
-80069,-2.7239e+05,14
-80058,-2.726e+05,14
-79166,-2.7293e+05,14
-78705,-2.7293e+05,14
-78898,-2.7294e+05,14
-77847,-2.7308e+05,14
-77389,-2.7318e+05,14
-77131,-2.7371e+05,14
-76199,-2.7358e+05,14
-76088,-2.7356e+05,14
-75498,-2.7385e+05,14
-74887,-2.7375e+05,14
-75050,-2.7359e+05,14
-75291,-2.7372e+05,14
-75100,-2.7364e+05,14
-75031,-2.7403e+05,14
-75233,-2.7308e+05,14
-75572,-2.73e+05,14
-75794,-2.7272e+05,14
-76129,-2.7274e+05,14
-76501,-2.7205e+05,14
-76975,-2.7278e+05,14
-78377,-2.722e+05,14
-78423,-2.7256e+05,14
-78889,-2.7293e+05,14
-79806,-2.7237e+05,14
-80103,-2.7264e+05,14
-79646,-2.7286e+05,14
-80152,-2.7281e+05,14
-80722,-2.7263e+05,14
-80560,-2.7221e+05,14
-80921,-2.7252e+05,14
-80585,-2.7302e+05,14
-80139,-2.725e+05,14
-79398,-2.7266e+05,14
-78627,-2.7264e+05,14
-79207,-2.7292e+05,14
-78480,-2.7347e+05,14
-77436,-2.7322e+05,14
-76778,-2.7324e+05,14
-76456,-2.7352e+05,14
-76435,-2.7341e+05,14
-75703,-2.7309e+05,14
-74853,-2.7329e+05,14
-74747,-2.735e+05,14
-74514,-2.74e+05,14
-74843,-2.7405e+05,14
-74685,-2.739e+05,14
-75095,-2.7429e+05,14
-75328,-2.7378e+05,14
-74801,-2.7421e+05,14
-75617,-2.7348e+05,14
-75533,-2.7268e+05,14
-76652,-2.728e+05,14
-75565,-2.7231e+05,14
-76676,-2.7176e+05,14
-77427,-2.7183e+05,14
-78131,-2.725e+05,14
-79269,-2.7208e+05,14
-79429,-2.7146e+05,14
-79737,-2.7117e+05,14
-79589,-2.7127e+05,14
-79416,-2.7134e+05,14
-79460,-2.7046e+05,14
-78725,-2.6982e+05,14
-78144,-2.6985e+05,14
-77233,-2.7063e+05,14
-76720,-2.7102e+05,14
-77516,-2.7089e+05,14
-78012,-2.7221e+05,14
-78153,-2.7231e+05,14
-77844,-2.7341e+05,14
-76906,-2.7272e+05,14
-75766,-2.7224e+05,14
-76423,-2.7188e+05,14
-75703,-2.7275e+05,14
-76239,-2.7416e+05,14
-76294,-2.7516e+05,14
-76616,-2.7588e+05,14
-76066,-2.7457e+05,14
-74352,-2.7387e+05,14
-73651,-2.7273e+05,14
-73718,-2.727e+05,14
-73713,-2.7247e+05,14
-75400,-2.7307e+05,14
-76922,-2.7263e+05,14
-76768,-2.7276e+05,14
-77139,-2.7141e+05,14
-77616,-2.7114e+05,14
-77666,-2.7097e+05,14
-78145,-2.714e+05,14
-77912,-2.72e+05,14
-79456,-2.7337e+05,14
-81058,-2.7349e+05,14
-81759,-2.7371e+05,14
-81511,-2.7345e+05,14
-81398,-2.7404e+05,14
-81825,-2.7405e+05,14
-82208,-2.7423e+05,14
-82079,-2.7362e+05,14
-81071,-2.7271e+05,14
-80064,-2.7193e+05,14
-78788,-2.7191e+05,14
-78623,-2.7237e+05,14
-79084,-2.7358e+05,14
-78131,-2.7407e+05,14
-77940,-2.7416e+05,14
-77301,-2.7478e+05,14
-76873,-2.7456e+05,14
-76825,-2.7495e+05,14
-76767,-2.7465e+05,14
-75724,-2.748e+05,14
-75922,-2.7471e+05,14
-75202,-2.746e+05,14
-75559,-2.743e+05,14
-75662,-2.7459e+05,14
-75159,-2.7431e+05,14
-76252,-2.7451e+05,14
-75445,-2.7422e+05,14
-76924,-2.7409e+05,14
-76951,-2.736e+05,14
-77416,-2.7385e+05,14
-78502,-2.7374e+05,14
-78411,-2.7316e+05,14
-79373,-2.7299e+05,14
-79925,-2.7271e+05,14
-80093,-2.7298e+05,14
-80264,-2.7277e+05,14
-80311,-2.7266e+05,14
-81093,-2.7223e+05,14
-80183,-2.7264e+05,14
-80887,-2.7261e+05,14
-80636,-2.7261e+05,14
-79785,-2.7204e+05,14
-79408,-2.7262e+05,14
-79122,-2.7268e+05,14
-78682,-2.7301e+05,14
-79006,-2.7327e+05,14
-77933,-2.7304e+05,14
-77625,-2.7339e+05,14
-76923,-2.731e+05,14
-76576,-2.7309e+05,14
-75518,-2.7316e+05,14
-74829,-2.7357e+05,14
-74866,-2.7334e+05,14
-74802,-2.7361e+05,14
-74939,-2.7272e+05,14
-74960,-2.7353e+05,14
-74629,-2.7354e+05,14
-74920,-2.7321e+05,14
-74809,-2.7378e+05,14
-75800,-2.7286e+05,14
-75947,-2.7341e+05,14
-76149,-2.7323e+05,14
-76182,-2.7275e+05,14
-77216,-2.7283e+05,14
-77987,-2.7284e+05,14
-78610,-2.72e+05,14
-78592,-2.7237e+05,14
-79499,-2.7258e+05,14
-79239,-2.7249e+05,14
-79920,-2.7262e+05,14
-80208,-2.724e+05,14
-80385,-2.7218e+05,14
-80003,-2.7263e+05,14
-80582,-2.7256e+05,14
-80058,-2.7218e+05,14
-80061,-2.7207e+05,14
-79664,-2.7176e+05,14
-79320,-2.7165e+05,14
-78011,-2.7194e+05,14
-77903,-2.7269e+05,14
-76519,-2.7254e+05,14
-76252,-2.7252e+05,14
-75857,-2.7184e+05,14
-75244,-2.7307e+05,14
-74921,-2.7265e+05,14
-74612,-2.7348e+05,14
-74097,-2.7426e+05,14
-73861,-2.7404e+05,14
-73783,-2.7285e+05,14
-74291,-2.7338e+05,14
-74877,-2.7368e+05,14
-75231,-2.743e+05,14
-75520,-2.7313e+05,14
-75391,-2.7303e+05,14
-74878,-2.7203e+05,14
-74530,-2.7115e+05,14
-75826,-2.7148e+05,14
-76493,-2.719e+05,14
-77930,-2.7242e+05,14
-77340,-2.718e+05,14
-77744,-2.7112e+05,14
-78071,-2.7124e+05,14
-79344,-2.7163e+05,14
-80079,-2.7225e+05,14
-80384,-2.7317e+05,14
-80683,-2.7334e+05,14
-80215,-2.7288e+05,14
-79874,-2.7221e+05,14
-79263,-2.7259e+05,14
-79016,-2.7159e+05,14
-77919,-2.7134e+05,14
-78395,-2.7147e+05,14
-78083,-2.7147e+05,14
-76592,-2.7075e+05,14
-76091,-2.72e+05,14
-75658,-2.7233e+05,14
-75432,-2.7357e+05,14
-75344,-2.7407e+05,14
-75212,-2.7412e+05,14
-75371,-2.7384e+05,14
-74981,-2.7318e+05,14
-74959,-2.7345e+05,14
-75046,-2.7396e+05,14
-75426,-2.74e+05,14
-75428,-2.7411e+05,14
-75941,-2.74e+05,14
-75701,-2.7397e+05,14
-76134,-2.7344e+05,14
-76574,-2.7292e+05,14
-76651,-2.7301e+05,14
-77440,-2.7339e+05,14
-78163,-2.7271e+05,14
-78294,-2.7261e+05,14
-79415,-2.7198e+05,14
-79301,-2.7304e+05,14
-79784,-2.7245e+05,14
-79359,-2.7174e+05,14
-79865,-2.718e+05,14
-79587,-2.7191e+05,14
-79649,-2.7219e+05,14
-79752,-2.7296e+05,14
-78922,-2.7263e+05,14
-78838,-2.7169e+05,14
-78314,-2.7078e+05,14
-77711,-2.7133e+05,14
-77530,-2.7099e+05,14
-76920,-2.6983e+05,14
-76021,-2.696e+05,14
-75716,-2.6934e+05,14
-75213,-2.7036e+05,14
-73960,-2.7014e+05,14
-73837,-2.7032e+05,14
-72771,-2.7337e+05,14
-72502,-2.7619e+05,14
-73376,-2.7659e+05,14
-74155,-2.7727e+05,14
-75552,-2.7614e+05,14
-75192,-2.7431e+05,14
-75169,-2.7317e+05,14
-74813,-2.7261e+05,14
-75523,-2.7362e+05,14
-76456,-2.7384e+05,14
-76498,-2.7504e+05,14
-78317,-2.7473e+05,14
-78681,-2.7388e+05,14
-78637,-2.7389e+05,14
-78656,-2.737e+05,14
-79146,-2.7335e+05,14
-79001,-2.7293e+05,14
-79442,-2.7258e+05,14
-79241,-2.718e+05,14
-79307,-2.7189e+05,14
-79404,-2.7217e+05,14
-79844,-2.7193e+05,14
-79346,-2.7034e+05,14
-78502,-2.7075e+05,14
-78770,-2.7078e+05,14
-78249,-2.7037e+05,14
-77715,-2.7077e+05,14
-77668,-2.7061e+05,14
-76871,-2.7143e+05,14
-76482,-2.7185e+05,14
-77129,-2.7217e+05,14
-75997,-2.7272e+05,14
-75139,-2.7447e+05,14
-74741,-2.7362e+05,14
-74966,-2.7391e+05,14
-74406,-2.741e+05,14
-74621,-2.7319e+05,14
-74453,-2.7315e+05,14
-75550,-2.7385e+05,14
-75842,-2.7485e+05,14
-76908,-2.7512e+05,14
-76520,-2.7422e+05,14
-76622,-2.7355e+05,14
-76356,-2.7221e+05,14
-77275,-2.7292e+05,14
-78454,-2.7372e+05,14
-79601,-2.7415e+05,14
-79396,-2.7448e+05,14
-80323,-2.7339e+05,14
-80354,-2.7287e+05,14
-80548,-2.7306e+05,14
-81186,-2.7255e+05,14
-81085,-2.7234e+05,14
-80789,-2.7281e+05,14
-80101,-2.7292e+05,14
-79884,-2.7254e+05,14
-80215,-2.7203e+05,14
-79811,-2.7268e+05,14
-79038,-2.723e+05,14
-78525,-2.7167e+05,14
-78315,-2.7163e+05,14
-77272,-2.706e+05,14
-76566,-2.7079e+05,14
-76214,-2.7193e+05,14
-76570,-2.7222e+05,14
-76116,-2.7403e+05,14
-76250,-2.7367e+05,14
-75938,-2.7317e+05,14
-75321,-2.7365e+05,14
-75412,-2.7404e+05,14
-75949,-2.7399e+05,14
-75710,-2.7435e+05,14
-75522,-2.7421e+05,14
-75841,-2.7404e+05,14
-76005,-2.7326e+05,14
-76354,-2.7355e+05,14
-76843,-2.7329e+05,14
-76704,-2.7318e+05,14
-77688,-2.7278e+05,14
-78003,-2.7258e+05,14
-78766,-2.7282e+05,14
-79788,-2.7266e+05,14
-80016,-2.7223e+05,14
-79949,-2.7267e+05,14
-79758,-2.7216e+05,14
-80020,-2.7194e+05,14
-79387,-2.7203e+05,14
-80094,-2.7192e+05,14
-79409,-2.7047e+05,14
-79371,-2.7054e+05,14
-78505,-2.7058e+05,14
-77099,-2.7098e+05,14
-77499,-2.7146e+05,14
-78362,-2.732e+05,14
-78481,-2.7332e+05,14
-77829,-2.731e+05,14
-77601,-2.7223e+05,14
-77225,-2.7269e+05,14
-75614,-2.7287e+05,14
-74951,-2.7251e+05,14
-75410,-2.7321e+05,14
-75265,-2.7336e+05,14
-75335,-2.7332e+05,14
-75446,-2.7372e+05,14
-75516,-2.7351e+05,14
-75687,-2.7303e+05,14
-75203,-2.7354e+05,14
-75288,-2.7244e+05,14
-75577,-2.7172e+05,14
-75925,-2.7165e+05,14
-76356,-2.7233e+05,14
-76858,-2.7249e+05,14
-76633,-2.7097e+05,14
-76568,-2.7034e+05,14
-77758,-2.7092e+05,14
-80437,-2.7268e+05,14
-82242,-2.7412e+05,14
-82464,-2.7436e+05,14
-81760,-2.7344e+05,14
-81166,-2.7275e+05,14
-81278,-2.7216e+05,14
-79982,-2.7211e+05,14
-80422,-2.7236e+05,14
-79930,-2.7274e+05,14
-80037,-2.7352e+05,14
-79653,-2.7331e+05,14
-79498,-2.73e+05,14
-79086,-2.7283e+05,14
-77975,-2.7275e+05,14
-77597,-2.726e+05,14
-77197,-2.7336e+05,14
-76114,-2.7343e+05,14
-75723,-2.7323e+05,14
-75574,-2.7294e+05,14
-74852,-2.7298e+05,14
-75363,-2.7331e+05,14
-74758,-2.7326e+05,14
-75010,-2.7333e+05,14
-75203,-2.7354e+05,14
-75288,-2.7244e+05,14
-75577,-2.7172e+05,14
-75925,-2.7165e+05,14
-76356,-2.7233e+05,14
-76858,-2.7249e+05,14
-76633,-2.7097e+05,14
-76568,-2.7034e+05,14
-77758,-2.7092e+05,14
-80437,-2.7268e+05,14
-82242,-2.7412e+05,14
-82464,-2.7436e+05,14
-81760,-2.7344e+05,14
-81166,-2.7275e+05,14
-81278,-2.7216e+05,14
-79982,-2.7211e+05,14
-80422,-2.7236e+05,14
-79930,-2.7274e+05,14
-80037,-2.7352e+05,14
-79653,-2.7331e+05,14
-79498,-2.73e+05,14
-79086,-2.7283e+05,14
-77975,-2.7275e+05,14
-77597,-2.726e+05,14
-77197,-2.7336e+05,14
-76114,-2.7343e+05,14
-75723,-2.7323e+05,14
-75574,-2.7294e+05,14
-74852,-2.7298e+05,14
-75363,-2.7331e+05,14
-74758,-2.7326e+05,14
-75010,-2.7333e+05,14
-74683,-2.7323e+05,14
-76083,-2.7371e+05,14
-75622,-2.7362e+05,14
-76160,-2.7309e+05,14
-76900,-2.7348e+05,14
-76494,-2.729e+05,14
-77330,-2.7326e+05,14
-77498,-2.7299e+05,14
-77842,-2.7285e+05,14
-78646,-2.734e+05,14
-79188,-2.7281e+05,14
-80190,-2.7243e+05,14
-79542,-2.7308e+05,14
-80618,-2.7289e+05,14
-80183,-2.7326e+05,14
-80079,-2.7273e+05,14
-80038,-2.7206e+05,14
-78934,-2.7115e+05,14
-77922,-2.7032e+05,14
-77391,-2.7148e+05,14
-76946,-2.7107e+05,14
-76152,-2.7163e+05,14
-76066,-2.7133e+05,14
-73811,-2.7135e+05,14
-72706,-2.7297e+05,14
-74053,-2.7407e+05,14
-75887,-2.7333e+05,14
-76365,-2.7303e+05,14
-76538,-2.7349e+05,14
-76576,-2.7535e+05,14
-77239,-2.7546e+05,14
-77561,-2.7559e+05,14
-77776,-2.764e+05,14
-77659,-2.7622e+05,14
-77285,-2.7563e+05,14
-77076,-2.7598e+05,14
-76864,-2.7489e+05,14
-77597,-2.7376e+05,14
-76880,-2.7309e+05,14
-77039,-2.7259e+05,14
-77867,-2.7263e+05,14
-78706,-2.7265e+05,14
-79268,-2.7246e+05,14
-80208,-2.7306e+05,14
-81033,-2.7348e+05,14
-81081,-2.7373e+05,14
-81201,-2.7329e+05,14
-80369,-2.7255e+05,14
-79517,-2.7221e+05,14
-79479,-2.7167e+05,14
-79423,-2.7067e+05,14
-78168,-2.6877e+05,14
-75840,-2.6726e+05,14
-74004,-2.6686e+05,14
-73348,-2.6669e+05,14
-74808,-2.6804e+05,14
-74937,-2.6871e+05,14
-75098,-2.6901e+05,14
-75893,-2.6898e+05,14
-76547,-2.6829e+05,14
-74888,-2.6726e+05,14
-72331,-2.67e+05,14
-71477,-2.6946e+05,14
-71680,-2.7292e+05,14
-77776,-2.764e+05,14
-77659,-2.7622e+05,14
-77285,-2.7563e+05,14
-77076,-2.7598e+05,14
-76864,-2.7489e+05,14
-77597,-2.7376e+05,14
-76880,-2.7309e+05,14
-77039,-2.7259e+05,14
-77867,-2.7263e+05,14
-78706,-2.7265e+05,14
-79268,-2.7246e+05,14
-80208,-2.7306e+05,14
-81033,-2.7348e+05,14
-81081,-2.7373e+05,14
-81201,-2.7329e+05,14
-80369,-2.7255e+05,14
-79517,-2.7221e+05,14
-79479,-2.7167e+05,14
-79423,-2.7067e+05,14
-78168,-2.6877e+05,14
-75840,-2.6726e+05,14
-74004,-2.6686e+05,14
-73348,-2.6669e+05,14
-74808,-2.6804e+05,14
-74937,-2.6871e+05,14
-75098,-2.6901e+05,14
-75893,-2.6898e+05,14
-76547,-2.6829e+05,14
-74888,-2.6726e+05,14
-72331,-2.67e+05,14
-71477,-2.6946e+05,14
-71680,-2.7292e+05,14
-77776,-2.764e+05,14
-77659,-2.7622e+05,14
-77285,-2.7563e+05,14
-77076,-2.7598e+05,14
-76864,-2.7489e+05,14
-77597,-2.7376e+05,14
-76880,-2.7309e+05,14
-77039,-2.7259e+05,14
-77867,-2.7263e+05,14
-78706,-2.7265e+05,14
-79268,-2.7246e+05,14
-80208,-2.7306e+05,14
-81033,-2.7348e+05,14
-81081,-2.7373e+05,14
-81201,-2.7329e+05,14
-80369,-2.7255e+05,14
-79517,-2.7221e+05,14
-79479,-2.7167e+05,14
-79423,-2.7067e+05,14
-78168,-2.6877e+05,14
-75840,-2.6726e+05,14
-74004,-2.6686e+05,14
-73348,-2.6669e+05,14
-74808,-2.6804e+05,14
-74937,-2.6871e+05,14
-75098,-2.6901e+05,14
-75893,-2.6898e+05,14
-76547,-2.6829e+05,14
-74888,-2.6726e+05,14
-72331,-2.67e+05,14
-71477,-2.6946e+05,14
-71680,-2.7292e+05,14
-75675,-2.7607e+05,14
-78053,-2.7701e+05,14
-79020,-2.7769e+05,14
-79002,-2.7709e+05,14
-79786,-2.7521e+05,14
-79107,-2.7449e+05,14
-79151,-2.7336e+05,14
-78324,-2.7258e+05,14
-77964,-2.7229e+05,14
-78530,-2.7258e+05,14
-78920,-2.7274e+05,14
-79183,-2.7277e+05,14
-79693,-2.7241e+05,14
-79925,-2.7095e+05,14
-80173,-2.7144e+05,14
-80803,-2.7076e+05,14
-81074,-2.7087e+05,14
-80578,-2.7133e+05,14
-80027,-2.7068e+05,14
-79590,-2.7002e+05,14
-79891,-2.7002e+05,14
-79267,-2.7074e+05,14
-80242,-2.7244e+05,14
-79902,-2.7303e+05,14
-79587,-2.7353e+05,14
-80085,-2.7312e+05,14
-79822,-2.7317e+05,14
-78143,-2.7325e+05,14
-77800,-2.7308e+05,14
-76414,-2.7242e+05,14
-75908,-2.7303e+05,14
-75822,-2.7345e+05,14
-75803,-2.7285e+05,14
-75707,-2.7318e+05,14
-75718,-2.7334e+05,14
-75162,-2.7334e+05,14
-75637,-2.7396e+05,14
-75389,-2.731e+05,14
-76155,-2.7338e+05,14
-76014,-2.7281e+05,14
-76692,-2.7306e+05,14
-77049,-2.733e+05,14
-78116,-2.7266e+05,14
-78252,-2.7304e+05,14
-78837,-2.7287e+05,14
-79054,-2.7258e+05,14
-80541,-2.7263e+05,14
-80344,-2.7203e+05,14
-80070,-2.7186e+05,14
-80483,-2.7205e+05,14
-80679,-2.7212e+05,14
-80493,-2.7197e+05,14
-80713,-2.7171e+05,14
-80488,-2.7205e+05,14
-79940,-2.7182e+05,14
-80003,-2.723e+05,14
-79378,-2.7222e+05,14
-79291,-2.7246e+05,14
-79165,-2.7244e+05,14
-77600,-2.7239e+05,14
-77776,-2.7235e+05,14
-77155,-2.7297e+05,14
-76303,-2.7305e+05,14
-76063,-2.7313e+05,14
-75398,-2.7336e+05,14
-75407,-2.7338e+05,14
-75325,-2.7343e+05,14
-74999,-2.7338e+05,14
-75407,-2.7292e+05,14
-75709,-2.7344e+05,14
-75634,-2.7313e+05,14
-75860,-2.7346e+05,14
-75963,-2.733e+05,14
-76889,-2.724e+05,14
-76962,-2.7277e+05,14
-76935,-2.7291e+05,14
-78169,-2.7202e+05,14
-78044,-2.7218e+05,14
-79143,-2.7184e+05,14
-79719,-2.7203e+05,14
-80069,-2.7157e+05,14
-80605,-2.7182e+05,14
-80030,-2.7246e+05,14
-80929,-2.7179e+05,14
-80977,-2.7258e+05,14
-80933,-2.7134e+05,14
-80847,-2.7219e+05,14
-80761,-2.7209e+05,14
-80416,-2.7197e+05,14
-80410,-2.7239e+05,14
-79618,-2.721e+05,14
-79360,-2.7193e+05,14
-78839,-2.7207e+05,14
-78579,-2.7183e+05,14
-77520,-2.7245e+05,14
-77118,-2.7262e+05,14
-75398,-2.7336e+05,14
-75407,-2.7338e+05,14
-75325,-2.7343e+05,14
-74999,-2.7338e+05,14
-75407,-2.7292e+05,14
-75709,-2.7344e+05,14
-75634,-2.7313e+05,14
-75860,-2.7346e+05,14
-75963,-2.733e+05,14
-76889,-2.724e+05,14
-76962,-2.7277e+05,14
-76935,-2.7291e+05,14
-78169,-2.7202e+05,14
-78044,-2.7218e+05,14
-79143,-2.7184e+05,14
-79719,-2.7203e+05,14
-80069,-2.7157e+05,14
-80605,-2.7182e+05,14
-80030,-2.7246e+05,14
-80929,-2.7179e+05,14
-80977,-2.7258e+05,14
-80933,-2.7134e+05,14
-80847,-2.7219e+05,14
-80761,-2.7209e+05,14
-80416,-2.7197e+05,14
-80410,-2.7239e+05,14
-79618,-2.721e+05,14
-79360,-2.7193e+05,14
-78839,-2.7207e+05,14
-78579,-2.7183e+05,14
-77520,-2.7245e+05,14
-77118,-2.7262e+05,14
-76804,-2.7243e+05,14
-75930,-2.7246e+05,14
-76426,-2.7266e+05,14
-75782,-2.7236e+05,14
-75543,-2.7243e+05,14
-75601,-2.7355e+05,14
-75552,-2.7338e+05,14
-75981,-2.73e+05,14
-75858,-2.7334e+05,14
-76535,-2.7288e+05,14
-77089,-2.7253e+05,14
-77122,-2.7166e+05,14
-77224,-2.7211e+05,14
-77628,-2.7181e+05,14
-79070,-2.7147e+05,14
-79221,-2.7134e+05,14
-79082,-2.7088e+05,14
-79816,-2.7104e+05,14
-79953,-2.7119e+05,14
-80214,-2.7163e+05,14
-80238,-2.7197e+05,14
-80439,-2.7255e+05,14
-80689,-2.7119e+05,14
-80893,-2.7123e+05,14
-80176,-2.7091e+05,14
-79298,-2.71e+05,14
-79325,-2.7228e+05,14
-79643,-2.7284e+05,14
-79332,-2.7354e+05,14
-79607,-2.7327e+05,14
-78626,-2.7305e+05,14
-77938,-2.7396e+05,14
-77530,-2.7369e+05,14
-76658,-2.7419e+05,14
-76835,-2.74e+05,14
-76565,-2.7383e+05,14
-75527,-2.7335e+05,14
-75427,-2.7317e+05,14
-75408,-2.7301e+05,14
-75422,-2.7232e+05,14
-75557,-2.7228e+05,14
-75662,-2.7276e+05,14
-76265,-2.7281e+05,14
-76255,-2.7199e+05,14
-75772,-2.7098e+05,14
-75444,-2.7009e+05,14
-76630,-2.7007e+05,14
-76664,-2.7025e+05,14
-76997,-2.698e+05,14
-76685,-2.6987e+05,14
-78023,-2.6962e+05,14
-77867,-2.6981e+05,14
-78072,-2.6935e+05,14
-78620,-2.693e+05,14
-79453,-2.7028e+05,14
-80178,-2.707e+05,14
-80492,-2.7096e+05,14
-80584,-2.7069e+05,14
-80269,-2.7221e+05,14
-80309,-2.7354e+05,14
-80176,-2.7426e+05,14
-80486,-2.7346e+05,14
-80511,-2.7217e+05,14
-77961,-2.7119e+05,14
-77277,-2.708e+05,14
-77745,-2.7089e+05,14
-77945,-2.7316e+05,14
-77683,-2.7517e+05,14
-77773,-2.7639e+05,14
-77670,-2.7569e+05,14
-77628,-2.7633e+05,14
-76911,-2.7549e+05,14
-77539,-2.7557e+05,14
-77969,-2.7553e+05,14
-78161,-2.7423e+05,14
-77812,-2.7402e+05,14
-77845,-2.738e+05,14
-77644,-2.7287e+05,14
-77851,-2.7258e+05,14
-77197,-2.7276e+05,14
-78460,-2.7215e+05,14
-78698,-2.7173e+05,14
-79588,-2.7132e+05,14
-80400,-2.7066e+05,14
-80097,-2.7032e+05,14
-79976,-2.7076e+05,14
-80661,-2.7041e+05,14
-80676,-2.7122e+05,14
-80613,-2.7183e+05,14
-81787,-2.7356e+05,14
-82985,-2.7447e+05,14
-82385,-2.736e+05,14
-82406,-2.7333e+05,14
-80872,-2.7323e+05,14
-79846,-2.7251e+05,14
-79478,-2.7142e+05,14
-78788,-2.7208e+05,14
-78111,-2.7323e+05,14
-78235,-2.7425e+05,14
-78158,-2.7441e+05,14
-77537,-2.7454e+05,14
-77524,-2.7458e+05,14
-77669,-2.7482e+05,14
-77140,-2.7465e+05,14
-76692,-2.7438e+05,14
-77077,-2.746e+05,14
-76888,-2.7363e+05,14
-76342,-2.7334e+05,14
-77208,-2.7298e+05,14
-77126,-2.7269e+05,14
-77374,-2.7257e+05,14
-77938,-2.7186e+05,14
-77787,-2.7211e+05,14
-78585,-2.7174e+05,14
-79015,-2.7205e+05,14
-79642,-2.7159e+05,14
-80186,-2.72e+05,14
-81653,-2.7155e+05,14
-81809,-2.7126e+05,14
-81316,-2.7179e+05,14
-81503,-2.7168e+05,14
-82165,-2.7148e+05,14
-81308,-2.7137e+05,14
-81753,-2.7216e+05,14
-81521,-2.7164e+05,14
-81108,-2.7268e+05,14
-80701,-2.731e+05,14
-80320,-2.7353e+05,14
-80231,-2.733e+05,14
-80411,-2.7279e+05,14
-79454,-2.7326e+05,14
-77746,-2.7325e+05,14
-77731,-2.7456e+05,14
-77087,-2.7399e+05,14
-76831,-2.74e+05,14
-76446,-2.7414e+05,14
-75913,-2.74e+05,14
-76606,-2.7362e+05,14
-75516,-2.7394e+05,14
-76210,-2.7349e+05,14
-76054,-2.7341e+05,14
-75640,-2.7374e+05,14
-76651,-2.7327e+05,14
-76682,-2.7319e+05,14
-77267,-2.7296e+05,14
-77138,-2.7218e+05,14
-78110,-2.7226e+05,14
-78638,-2.7148e+05,14
-79605,-2.7151e+05,14
-79458,-2.7154e+05,14
-80542,-2.7167e+05,14
-81591,-2.7111e+05,14
-80602,-2.7106e+05,14
-81186,-2.7086e+05,14
-81353,-2.7118e+05,14
-81269,-2.715e+05,14
-81807,-2.7119e+05,14
-81422,-2.7227e+05,14
-81308,-2.7214e+05,14
-80601,-2.7234e+05,14
-79624,-2.7267e+05,14
-79768,-2.7261e+05,14
-79925,-2.7373e+05,14
-78318,-2.7335e+05,14
-78267,-2.7356e+05,14
-77610,-2.742e+05,14
-77167,-2.7416e+05,14
-77074,-2.7427e+05,14
-76443,-2.7426e+05,14
-75689,-2.7412e+05,14
-75215,-2.7358e+05,14
-75564,-2.739e+05,14
-75848,-2.7395e+05,14
-75481,-2.7354e+05,14
-76038,-2.7359e+05,14
-76229,-2.7303e+05,14
-76181,-2.7249e+05,14
-77075,-2.7231e+05,14
-76945,-2.7161e+05,14
-77029,-2.7088e+05,14
-78026,-2.7058e+05,14
-78603,-2.6979e+05,14
-78907,-2.6909e+05,14
-79941,-2.6945e+05,14
-79839,-2.691e+05,14
-80223,-2.6939e+05,14
-80085,-2.6956e+05,14
-79590,-2.6981e+05,14
-78892,-2.6898e+05,14
-78928,-2.7009e+05,14
-80022,-2.7162e+05,14
-80759,-2.7199e+05,14
-80995,-2.7148e+05,14
-79786,-2.7045e+05,14
-77698,-2.7047e+05,14
-78339,-2.7282e+05,14
-78671,-2.7422e+05,14
-79149,-2.75e+05,14
-78713,-2.7487e+05,14
-78681,-2.7532e+05,14
-77470,-2.7482e+05,14
-76474,-2.7444e+05,14
-76462,-2.7427e+05,14
-75456,-2.7561e+05,14
-76965,-2.7522e+05,14
-76668,-2.7469e+05,14
-76058,-2.7464e+05,14
-76676,-2.738e+05,14
-76712,-2.7306e+05,14
-76770,-2.7291e+05,14
-77399,-2.7265e+05,14
-78174,-2.7279e+05,14
-78439,-2.7218e+05,14
-79499,-2.7177e+05,14
-79599,-2.7165e+05,14
-79464,-2.7147e+05,14
-80639,-2.7188e+05,14
-80793,-2.722e+05,14
-81164,-2.7137e+05,14
-80907,-2.7045e+05,14
-80928,-2.7003e+05,14
-80978,-2.7068e+05,14
-80390,-2.7117e+05,14
-80804,-2.7096e+05,14
-80931,-2.7109e+05,14
-81332,-2.7087e+05,14
-81610,-2.708e+05,14
-81281,-2.7217e+05,14
-80101,-2.7427e+05,14
-80242,-2.7503e+05,14
-78971,-2.7517e+05,14
-77349,-2.7414e+05,14
-76933,-2.7318e+05,14
-76776,-2.7194e+05,14
-76428,-2.722e+05,14
-76604,-2.7481e+05,14
-77385,-2.7515e+05,14
-76997,-2.7442e+05,14
-76647,-2.7477e+05,14
-77192,-2.7447e+05,14
-77395,-2.7447e+05,14
-76694,-2.7373e+05,14
-76591,-2.7346e+05,14
-76569,-2.732e+05,14
-77736,-2.7242e+05,14
-77260,-2.7236e+05,14
-77986,-2.7165e+05,14
-79112,-2.7153e+05,14
-79019,-2.7147e+05,14
-79696,-2.7082e+05,14
-80910,-2.7053e+05,14
-81395,-2.7119e+05,14
-81360,-2.7098e+05,14
-81535,-2.7092e+05,14
-81693,-2.7091e+05,14
-81506,-2.7056e+05,14
-81965,-2.7085e+05,14
-81708,-2.7121e+05,14
-81236,-2.7119e+05,14
-80149,-2.721e+05,14
-79828,-2.7277e+05,14
-80007,-2.7297e+05,14
-79575,-2.7428e+05,14
-78564,-2.7413e+05,14
-78591,-2.7449e+05,14
-78009,-2.7513e+05,14
-77412,-2.7475e+05,14
-76821,-2.7431e+05,14
-76307,-2.7451e+05,14
-74926,-2.7341e+05,14
-74777,-2.7366e+05,14
-75243,-2.7349e+05,14
-75366,-2.7343e+05,14
-76188,-2.7406e+05,14
-76629,-2.7332e+05,14
-76754,-2.7239e+05,14
-76820,-2.7196e+05,14
-77336,-2.7158e+05,14
-77279,-2.7216e+05,14
-76667,-2.7141e+05,14
-77909,-2.7072e+05,14
-78442,-2.7024e+05,14
-79397,-2.7023e+05,14
-80457,-2.7039e+05,14
-80262,-2.7066e+05,14
-80927,-2.7081e+05,14
-81329,-2.712e+05,14
-81920,-2.7149e+05,14
-82230,-2.7257e+05,14
-81944,-2.7161e+05,14
-81486,-2.72e+05,14
-82204,-2.7123e+05,14
-81060,-2.7156e+05,14
-81185,-2.7225e+05,14
-80012,-2.7264e+05,14
-79728,-2.7301e+05,14
-79404,-2.7363e+05,14
-79095,-2.7361e+05,14
-78504,-2.745e+05,14
-77451,-2.7444e+05,14
-76800,-2.7454e+05,14
-76459,-2.744e+05,14
-76237,-2.7419e+05,14
-75912,-2.7403e+05,14
-76170,-2.7382e+05,14
-75630,-2.7368e+05,14
-76036,-2.7377e+05,14
-75823,-2.7313e+05,14
-76361,-2.7346e+05,14
-77307,-2.7333e+05,14
-77357,-2.7285e+05,14
-77573,-2.7276e+05,14
-77623,-2.7174e+05,14
-79102,-2.7129e+05,14
-78983,-2.7133e+05,14
-79450,-2.7036e+05,14
-79700,-2.7009e+05,14
-80557,-2.703e+05,14
-80819,-2.7031e+05,14
-81406,-2.7056e+05,14
-81573,-2.7087e+05,14
-81104,-2.7072e+05,14
-80691,-2.7117e+05,14
-80732,-2.7074e+05,14
-80709,-2.7063e+05,14
-80043,-2.7084e+05,14
-79391,-2.7067e+05,14
-78409,-2.7102e+05,14
-77884,-2.7039e+05,14
-78637,-2.711e+05,14
-77006,-2.7274e+05,14
-77800,-2.734e+05,14
-77286,-2.743e+05,14
-76516,-2.7382e+05,14
-75468,-2.7298e+05,14
-74709,-2.7293e+05,14
-74405,-2.7245e+05,14
-73998,-2.7215e+05,14
-74039,-2.7323e+05,14
-75284,-2.7506e+05,14
-76061,-2.7506e+05,14
-76397,-2.7475e+05,14
-76731,-2.7475e+05,14
-77601,-2.7437e+05,14
-78638,-2.743e+05,14
-78734,-2.7339e+05,14
-79247,-2.7231e+05,14
-79515,-2.7116e+05,14
-80025,-2.7097e+05,14
-80112,-2.7089e+05,14
-81217,-2.705e+05,14
-81905,-2.7081e+05,14
-81572,-2.7058e+05,14
-81775,-2.7067e+05,14
-81735,-2.7116e+05,14
-81564,-2.7137e+05,14
-82057,-2.716e+05,14
-81314,-2.713e+05,14
-81050,-2.7211e+05,14
-80576,-2.7229e+05,14
-80074,-2.7271e+05,14
-80414,-2.7243e+05,14
-80297,-2.7377e+05,14
-78624,-2.741e+05,14
-78113,-2.7382e+05,14
-77295,-2.738e+05,14
-77245,-2.7391e+05,14
-76164,-2.7349e+05,14
-75243,-2.7372e+05,14
-75241,-2.7351e+05,14
-74950,-2.735e+05,14
-74587,-2.7264e+05,14
-75180,-2.7318e+05,14
-75569,-2.728e+05,14
-76379,-2.7343e+05,14
-75918,-2.7244e+05,14
-76541,-2.7225e+05,14
-77746,-2.7133e+05,14
-77039,-2.7039e+05,14
-76637,-2.7043e+05,14
-77820,-2.7163e+05,14
-79373,-2.7158e+05,14
-80694,-2.7086e+05,14
-81256,-2.7042e+05,14
-82354,-2.718e+05,14
-83048,-2.7219e+05,14
-82417,-2.7219e+05,14
-82400,-2.7136e+05,14
-82089,-2.7216e+05,14
-82091,-2.7138e+05,14
-81946,-2.7187e+05,14
-81965,-2.7155e+05,14
-81536,-2.7146e+05,14
-81136,-2.7172e+05,14
-80284,-2.7183e+05,14
-79934,-2.727e+05,14
-80055,-2.7359e+05,14
-78191,-2.7368e+05,14
-78058,-2.7379e+05,14
-76860,-2.7353e+05,14
-75993,-2.7415e+05,14
-76323,-2.7384e+05,14
-76573,-2.7396e+05,14
-75745,-2.7422e+05,14
-74752,-2.735e+05,14
-75018,-2.7288e+05,14
-75771,-2.7376e+05,14
-76865,-2.7361e+05,14
-76291,-2.7311e+05,14
-76360,-2.7271e+05,14
-76761,-2.7224e+05,14
-77317,-2.7179e+05,14
-77343,-2.7069e+05,14
-79152,-2.7165e+05,14
-79438,-2.7215e+05,14
-80515,-2.7168e+05,14
-82354,-2.718e+05,14
-83048,-2.7219e+05,14
-82417,-2.7219e+05,14
-82400,-2.7136e+05,14
-82089,-2.7216e+05,14
-82091,-2.7138e+05,14
-81946,-2.7187e+05,14
-81965,-2.7155e+05,14
-81536,-2.7146e+05,14
-81136,-2.7172e+05,14
-80284,-2.7183e+05,14
-79934,-2.727e+05,14
-80055,-2.7359e+05,14
-78191,-2.7368e+05,14
-78058,-2.7379e+05,14
-76860,-2.7353e+05,14
-75993,-2.7415e+05,14
-76323,-2.7384e+05,14
-76573,-2.7396e+05,14
-75745,-2.7422e+05,14
-74752,-2.735e+05,14
-75018,-2.7288e+05,14
-75771,-2.7376e+05,14
-76865,-2.7361e+05,14
-76291,-2.7311e+05,14
-76360,-2.7271e+05,14
-76761,-2.7224e+05,14
-77317,-2.7179e+05,14
-77343,-2.7069e+05,14
-79152,-2.7165e+05,14
-79438,-2.7215e+05,14
-80515,-2.7168e+05,14
-80000,-2.7096e+05,14
-80846,-2.7127e+05,14
-81443,-2.712e+05,14
-81500,-2.7053e+05,14
-81261,-2.7052e+05,14
-81295,-2.7056e+05,14
-81049,-2.7039e+05,14
-81051,-2.7123e+05,14
-81240,-2.7068e+05,14
-81132,-2.7171e+05,14
-80306,-2.7186e+05,14
-79896,-2.7173e+05,14
-79973,-2.7216e+05,14
-79166,-2.7292e+05,14
-78990,-2.7392e+05,14
-78587,-2.744e+05,14
-78134,-2.7495e+05,14
-77333,-2.757e+05,14
-77110,-2.7525e+05,14
-76210,-2.7489e+05,14
-75509,-2.7473e+05,14
-76240,-2.7456e+05,14
-75819,-2.7394e+05,14
-75737,-2.7368e+05,14
-75593,-2.7299e+05,14
-75499,-2.7219e+05,14
-75937,-2.7208e+05,14
-76828,-2.7233e+05,14
-77379,-2.7207e+05,14
-77773,-2.7115e+05,14
-78234,-2.7071e+05,14
-78292,-2.6998e+05,14
-80000,-2.7096e+05,14
-80846,-2.7127e+05,14
-81443,-2.712e+05,14
-81500,-2.7053e+05,14
-81261,-2.7052e+05,14
-81295,-2.7056e+05,14
-81049,-2.7039e+05,14
-81051,-2.7123e+05,14
-81240,-2.7068e+05,14
-81132,-2.7171e+05,14
-80306,-2.7186e+05,14
-79896,-2.7173e+05,14
-79973,-2.7216e+05,14
-79166,-2.7292e+05,14
-78990,-2.7392e+05,14
-78587,-2.744e+05,14
-78134,-2.7495e+05,14
-77333,-2.757e+05,14
-77110,-2.7525e+05,14
-76210,-2.7489e+05,14
-75509,-2.7473e+05,14
-76240,-2.7456e+05,14
-75819,-2.7394e+05,14
-75737,-2.7368e+05,14
-75593,-2.7299e+05,14
-75499,-2.7219e+05,14
-75937,-2.7208e+05,14
-76828,-2.7233e+05,14
-77379,-2.7207e+05,14
-77773,-2.7115e+05,14
-78234,-2.7071e+05,14
-78292,-2.6998e+05,14
-80000,-2.7096e+05,14
-80846,-2.7127e+05,14
-81443,-2.712e+05,14
-81500,-2.7053e+05,14
-81261,-2.7052e+05,14
-81295,-2.7056e+05,14
-81049,-2.7039e+05,14
-81051,-2.7123e+05,14
-81240,-2.7068e+05,14
-81132,-2.7171e+05,14
-80306,-2.7186e+05,14
-79896,-2.7173e+05,14
-79973,-2.7216e+05,14
-79166,-2.7292e+05,14
-78990,-2.7392e+05,14
-78587,-2.744e+05,14
-78134,-2.7495e+05,14
-77333,-2.757e+05,14
-77110,-2.7525e+05,14
-76210,-2.7489e+05,14
-75509,-2.7473e+05,14
-76240,-2.7456e+05,14
-75819,-2.7394e+05,14
-75737,-2.7368e+05,14
-75593,-2.7299e+05,14
-75499,-2.7219e+05,14
-75937,-2.7208e+05,14
-76828,-2.7233e+05,14
-77379,-2.7207e+05,14
-77773,-2.7115e+05,14
-78234,-2.7071e+05,14
-78292,-2.6998e+05,14
-78459,-2.7008e+05,14
-79470,-2.6973e+05,14
-80805,-2.6992e+05,14
-81228,-2.7006e+05,14
-81141,-2.7025e+05,14
-81093,-2.7004e+05,14
-80749,-2.6997e+05,14
-80222,-2.6939e+05,14
-80881,-2.7011e+05,14
-80714,-2.7043e+05,14
-80848,-2.71e+05,14
-80832,-2.7135e+05,14
-80088,-2.7214e+05,14
-79389,-2.7193e+05,14
-79319,-2.7301e+05,14
-78421,-2.7293e+05,14
-77678,-2.7423e+05,14
-77316,-2.7454e+05,14
-77222,-2.754e+05,14
-77085,-2.7501e+05,14
-75764,-2.7495e+05,14
-75833,-2.7508e+05,14
-75955,-2.7495e+05,14
-75941,-2.7429e+05,14
-75068,-2.7377e+05,14
-75335,-2.7166e+05,14
-75464,-2.7068e+05,14
-75884,-2.7083e+05,14
-76389,-2.7116e+05,14
-76343,-2.7155e+05,14
-76113,-2.7097e+05,14
-76977,-2.7023e+05,14
-78859,-2.7014e+05,14
-79414,-2.6926e+05,14
-79479,-2.6928e+05,14
-80134,-2.6906e+05,14
-81101,-2.7032e+05,14
-81249,-2.7026e+05,14
-81995,-2.6972e+05,14
-81687,-2.6994e+05,14
-81030,-2.7046e+05,14
-81913,-2.7184e+05,14
-82078,-2.7202e+05,14
-81879,-2.7162e+05,14
-81295,-2.714e+05,14
-81222,-2.7175e+05,14
-79972,-2.7293e+05,14
-80387,-2.7413e+05,14
-79736,-2.7372e+05,14
-79077,-2.7459e+05,14
-77814,-2.7426e+05,14
-77416,-2.7413e+05,14
-76122,-2.7344e+05,14
-76164,-2.7343e+05,14
-76244,-2.7412e+05,14
-75696,-2.7415e+05,14
-75653,-2.7405e+05,14
-75701,-2.7334e+05,14
-74926,-2.7244e+05,14
-74836,-2.7213e+05,14
-74763,-2.7157e+05,14
-75454,-2.7091e+05,14
-74582,-2.7082e+05,14
-75742,-2.7107e+05,14
-76341,-2.7006e+05,14
-77606,-2.6937e+05,14
-78232,-2.6934e+05,14
-78348,-2.6962e+05,14
-79774,-2.699e+05,14
-81496,-2.7127e+05,14
-82073,-2.7071e+05,14
-81792,-2.71e+05,14
-82683,-2.7151e+05,14
-82341,-2.7091e+05,14
-82015,-2.7069e+05,14
-81366,-2.7022e+05,14
-81035,-2.7079e+05,14
-81224,-2.7184e+05,14
-81425,-2.7302e+05,14
-81433,-2.7385e+05,14
-81488,-2.7377e+05,14
-80778,-2.7352e+05,14
-78365,-2.7369e+05,14
-77548,-2.7374e+05,14
-76741,-2.7329e+05,14
-76467,-2.7465e+05,14
-76776,-2.7535e+05,14
-78203,-2.7589e+05,14
-77092,-2.7487e+05,14
-76537,-2.7382e+05,14
-76022,-2.7299e+05,14
-75719,-2.7293e+05,14
-75310,-2.7237e+05,14
-75389,-2.7212e+05,14
-74898,-2.7142e+05,14
-75136,-2.7075e+05,14
-75497,-2.7047e+05,14
-76190,-2.6928e+05,14
-76823,-2.6939e+05,14
-78836,-2.7029e+05,14
-80762,-2.7168e+05,14
-82348,-2.7192e+05,14
-82279,-2.7094e+05,14
-82118,-2.7098e+05,14
-82370,-2.7097e+05,14
-82337,-2.7036e+05,14
-82445,-2.7075e+05,14
-82609,-2.7104e+05,14
-81848,-2.7107e+05,14
-81582,-2.7119e+05,14
-81586,-2.7204e+05,14
-81341,-2.7246e+05,14
-81051,-2.7243e+05,14
-80411,-2.7299e+05,14
-79414,-2.7294e+05,14
-78917,-2.732e+05,14
-78377,-2.7422e+05,14
-77799,-2.7378e+05,14
-77641,-2.7441e+05,14
-76988,-2.743e+05,14
-76363,-2.7495e+05,14
-76310,-2.7459e+05,14
-75235,-2.7503e+05,14
-75558,-2.7548e+05,14
-75611,-2.751e+05,14
-75612,-2.7396e+05,14
-75758,-2.7382e+05,14
-76293,-2.7232e+05,14
-76441,-2.7147e+05,14
-76501,-2.7088e+05,14
-76272,-2.6919e+05,14
-75922,-2.6919e+05,14
-77295,-2.6971e+05,14
-77719,-2.6961e+05,14
-78783,-2.7047e+05,14
-80030,-2.7058e+05,14
-80997,-2.7074e+05,14
-81539,-2.7077e+05,14
-82000,-2.7011e+05,14
-81408,-2.6913e+05,14
-81216,-2.6788e+05,14
-79958,-2.6727e+05,14
-80745,-2.699e+05,14
-82367,-2.7251e+05,14
-83405,-2.7281e+05,14
-82585,-2.732e+05,14
-81576,-2.7304e+05,14
-80818,-2.726e+05,14
-80296,-2.7362e+05,14
-79272,-2.7388e+05,14
-78707,-2.7398e+05,14
-77881,-2.7448e+05,14
-77488,-2.7487e+05,14
-76126,-2.7458e+05,14
-77136,-2.7522e+05,14
-76371,-2.7466e+05,14
-76450,-2.746e+05,14
-76204,-2.7479e+05,14
-75659,-2.7386e+05,14
-76297,-2.734e+05,14
-76220,-2.7293e+05,14
-76804,-2.7216e+05,14
-77081,-2.7143e+05,14
-77811,-2.716e+05,14
-77568,-2.7122e+05,14
-78662,-2.7087e+05,14
-79300,-2.6996e+05,14
-79673,-2.6904e+05,14
-79860,-2.6934e+05,14
-80869,-2.6949e+05,14
-81148,-2.6945e+05,14
-81496,-2.6933e+05,14
-81478,-2.7013e+05,14
-82091,-2.6981e+05,14
-82029,-2.695e+05,14
-81345,-2.6904e+05,14
-81178,-2.7007e+05,14
-81296,-2.7032e+05,14
-80458,-2.7123e+05,14
-79960,-2.7172e+05,14
-80482,-2.7217e+05,14
-79276,-2.7286e+05,14
-78435,-2.7308e+05,14
-77675,-2.726e+05,14
-76511,-2.7198e+05,14
-76115,-2.7237e+05,14
-74998,-2.7269e+05,14
-74448,-2.7238e+05,14
-74357,-2.7229e+05,14
-75137,-2.7331e+05,14
-75511,-2.7279e+05,14
-74975,-2.7287e+05,14
-74237,-2.7183e+05,14
-74616,-2.7153e+05,14
-75808,-2.712e+05,14
-75679,-2.7187e+05,14
-77029,-2.7218e+05,14
-78474,-2.7188e+05,14
-78611,-2.7141e+05,14
-78664,-2.7014e+05,14
-79441,-2.6885e+05,14
-79817,-2.6922e+05,14
-80466,-2.6969e+05,14
-80885,-2.7023e+05,14
-81755,-2.6982e+05,14
-81784,-2.6992e+05,14
-81892,-2.703e+05,14
-81991,-2.6993e+05,14
-81652,-2.6944e+05,14
-80567,-2.6937e+05,14
-80348,-2.7006e+05,14
-80229,-2.7088e+05,14
-81051,-2.7335e+05,14
-82206,-2.738e+05,14
-81511,-2.7418e+05,14
-79641,-2.7416e+05,14
-78891,-2.7358e+05,14
-77758,-2.7404e+05,14
-77753,-2.7458e+05,14
-76933,-2.7445e+05,14
-77215,-2.7498e+05,14
-77381,-2.7476e+05,14
-76448,-2.7416e+05,14
-75832,-2.7316e+05,14
-75347,-2.7317e+05,14
-75220,-2.7307e+05,14
-75749,-2.7308e+05,14
-76375,-2.7307e+05,14
-77147,-2.7242e+05,14
-77353,-2.722e+05,14
-78034,-2.7121e+05,14
-77792,-2.7018e+05,14
-78466,-2.7026e+05,14
-79766,-2.6981e+05,14
-79762,-2.6936e+05,14
-80024,-2.6927e+05,14
-81000,-2.6946e+05,14
-81717,-2.6956e+05,14
-81475,-2.6906e+05,14
-81272,-2.6869e+05,14
-81317,-2.6926e+05,14
-81702,-2.7071e+05,14
-82672,-2.7163e+05,14
-82436,-2.7235e+05,14
-82450,-2.7271e+05,14
-81940,-2.7259e+05,14
-80905,-2.7243e+05,14
-79623,-2.7271e+05,14
-78958,-2.7224e+05,14
-77936,-2.728e+05,14
-76957,-2.7238e+05,14
-76719,-2.7264e+05,14
-75404,-2.7184e+05,14
-74764,-2.705e+05,14
-74825,-2.7122e+05,14
-74645,-2.7091e+05,14
-74218,-2.7167e+05,14
-74360,-2.7339e+05,14
-74836,-2.7418e+05,14
-74812,-2.7394e+05,14
-75259,-2.7448e+05,14
-76699,-2.7429e+05,14
-78386,-2.7386e+05,14
-78843,-2.7269e+05,14
-78528,-2.7145e+05,14
-79824,-2.7211e+05,14
-80515,-2.7167e+05,14
-80957,-2.7148e+05,14
-80750,-2.7055e+05,14
-81253,-2.7033e+05,14
-82474,-2.7034e+05,14
-82219,-2.7033e+05,14
-82099,-2.7142e+05,14
-82363,-2.7107e+05,14
-82428,-2.7086e+05,14
-81416,-2.7136e+05,14
-81796,-2.7082e+05,14
-81325,-2.7018e+05,14
-80501,-2.7106e+05,14
-80495,-2.7212e+05,14
-80551,-2.7334e+05,14
-80616,-2.7451e+05,14
-79210,-2.7444e+05,14
-78905,-2.7419e+05,14
-78367,-2.7436e+05,14
-77522,-2.7447e+05,14
-77270,-2.7453e+05,14
-77091,-2.7373e+05,14
-76501,-2.7402e+05,14
-75543,-2.7387e+05,14
-76401,-2.7376e+05,14
-76177,-2.7392e+05,14
-76476,-2.7393e+05,14
-76297,-2.7293e+05,14
-76840,-2.7247e+05,14
-77533,-2.7278e+05,14
-77968,-2.7271e+05,14
-78088,-2.7194e+05,14
-78693,-2.7174e+05,14
-78811,-2.7153e+05,14
-79680,-2.7058e+05,14
-80332,-2.7036e+05,14
-81118,-2.6998e+05,14
-81331,-2.6981e+05,14
-81187,-2.7003e+05,14
-82134,-2.704e+05,14
-81944,-2.7056e+05,14
-82294,-2.6997e+05,14
-82004,-2.7054e+05,14
-81334,-2.7059e+05,14
-81208,-2.7111e+05,14
-81479,-2.7179e+05,14
-80126,-2.7136e+05,14
-80466,-2.7157e+05,14
-79686,-2.7246e+05,14
-78716,-2.7317e+05,14
-78432,-2.7316e+05,14
-77653,-2.7352e+05,14
-77268,-2.7311e+05,14
-76235,-2.7353e+05,14
-75671,-2.7267e+05,14
-75391,-2.7312e+05,14
-75621,-2.7345e+05,14
-75362,-2.7393e+05,14
-75273,-2.7385e+05,14
-75756,-2.7317e+05,14
-75993,-2.7263e+05,14
-76154,-2.7302e+05,14
-77092,-2.7336e+05,14
-77606,-2.7206e+05,14
-77711,-2.7186e+05,14
-78022,-2.7048e+05,14
-78699,-2.7001e+05,14
-78900,-2.7027e+05,14
-79458,-2.7007e+05,14
-79666,-2.6942e+05,14
-80278,-2.6952e+05,14
-80194,-2.6887e+05,14
-80472,-2.7031e+05,14
-81609,-2.7124e+05,14
-82829,-2.7001e+05,14
-82216,-2.6953e+05,14
-80436,-2.6797e+05,14
-80106,-2.6832e+05,14
-80597,-2.6949e+05,14
-81706,-2.7167e+05,14
-82139,-2.7285e+05,14
-81971,-2.7434e+05,14
-81448,-2.7338e+05,14
-79637,-2.7294e+05,14
-78409,-2.7305e+05,14
-77413,-2.7405e+05,14
-77334,-2.7428e+05,14
-76982,-2.7431e+05,14
-76685,-2.7416e+05,14
-75971,-2.7337e+05,14
-75647,-2.73e+05,14
-75723,-2.7226e+05,14
-76315,-2.7217e+05,14
-76423,-2.7188e+05,14
-76159,-2.7122e+05,14
-76983,-2.7134e+05,14
-77391,-2.7156e+05,14
-77802,-2.7235e+05,14
-78189,-2.7128e+05,14
-79930,-2.7066e+05,14
-80543,-2.7055e+05,14
-81499,-2.7039e+05,14
-81204,-2.709e+05,14
-81619,-2.7089e+05,14
-81728,-2.702e+05,14
-82041,-2.705e+05,14
-82472,-2.7004e+05,14
-82264,-2.7043e+05,14
-82552,-2.712e+05,14
-82376,-2.7115e+05,14
-81771,-2.7124e+05,14
-81710,-2.7161e+05,14
-80861,-2.713e+05,14
-79867,-2.7146e+05,14
-79015,-2.714e+05,14
-79249,-2.7243e+05,14
-77514,-2.723e+05,14
-76833,-2.7149e+05,14
-75622,-2.7105e+05,14
-74735,-2.7004e+05,14
-73491,-2.6866e+05,14
-72065,-2.6898e+05,14
-71814,-2.6951e+05,14
-72901,-2.7177e+05,14
-75467,-2.7284e+05,14
-77551,-2.7406e+05,14
-77600,-2.7409e+05,14
-78163,-2.753e+05,14
-77829,-2.7629e+05,14
-78849,-2.7603e+05,14
-80176,-2.7523e+05,14
-80244,-2.7294e+05,14
-79873,-2.7128e+05,14
-79289,-2.708e+05,14
-80321,-2.709e+05,14
-81341,-2.7012e+05,14
-82240,-2.7034e+05,14
-82555,-2.7017e+05,14
-81777,-2.6947e+05,14
-81600,-2.6937e+05,14
-81489,-2.6894e+05,14
-81988,-2.6954e+05,14
-82085,-2.7088e+05,14
-82039,-2.7073e+05,14
-81758,-2.7055e+05,14
-81433,-2.7106e+05,14
-80939,-2.7125e+05,14
-80349,-2.7141e+05,14
-79751,-2.7223e+05,14
-79058,-2.723e+05,14
-78520,-2.7298e+05,14
-77611,-2.7322e+05,14
-78229,-2.7362e+05,14
-77216,-2.735e+05,14
-77030,-2.7357e+05,14
-76387,-2.7371e+05,14
-76383,-2.7342e+05,14
-76192,-2.7315e+05,14
-76916,-2.7284e+05,14
-76646,-2.7323e+05,14
-76708,-2.7256e+05,14
-76917,-2.7224e+05,14
-77478,-2.7172e+05,14
-78051,-2.7142e+05,14
-78268,-2.7169e+05,14
-78018,-2.71e+05,14
-79109,-2.7124e+05,14
-80033,-2.7038e+05,14
-80221,-2.703e+05,14
-80490,-2.703e+05,14
-81014,-2.7012e+05,14
-81362,-2.6941e+05,14
-81385,-2.6991e+05,14
-82113,-2.6962e+05,14
-82114,-2.7024e+05,14
-81779,-2.7e+05,14
-81494,-2.7037e+05,14
-81062,-2.7031e+05,14
-80450,-2.7071e+05,14
-80241,-2.7051e+05,14
-79648,-2.7072e+05,14
-78487,-2.7018e+05,14
-78213,-2.7055e+05,14
-77700,-2.7146e+05,14
-77248,-2.7258e+05,14
-78047,-2.7369e+05,14
-78100,-2.74e+05,14
-78261,-2.7416e+05,14
-78117,-2.7481e+05,14
-77716,-2.7417e+05,14
-77208,-2.7431e+05,14
-76924,-2.7402e+05,14
-76928,-2.7339e+05,14
-76777,-2.7293e+05,14
-76531,-2.7284e+05,14
-76986,-2.7227e+05,14
-77741,-2.717e+05,14
-78406,-2.7162e+05,14
-78146,-2.7132e+05,14
-78903,-2.7034e+05,14
-80078,-2.6988e+05,14
-80762,-2.7027e+05,14
-80404,-2.699e+05,14
-81643,-2.7063e+05,14
-81746,-2.7092e+05,14
-82144,-2.7091e+05,14
-82784,-2.7087e+05,14
-82999,-2.7045e+05,14
-83390,-2.709e+05,14
-82314,-2.7071e+05,14
-81869,-2.7093e+05,14
-81924,-2.7156e+05,14
-81395,-2.7215e+05,14
-81278,-2.7211e+05,14
-80747,-2.7211e+05,14
-80196,-2.7188e+05,14
-78946,-2.7249e+05,14
-78479,-2.7284e+05,14
-77713,-2.7301e+05,14
-76670,-2.724e+05,14
-75510,-2.7225e+05,14
-75842,-2.7309e+05,14
-76690,-2.7346e+05,14
-76779,-2.7272e+05,14
-76452,-2.7251e+05,14
-76448,-2.7239e+05,14
-76486,-2.7255e+05,14
-76232,-2.7176e+05,14
-76579,-2.7191e+05,14
-76667,-2.7153e+05,14
-78209,-2.7157e+05,14
-78150,-2.7104e+05,14
-77671,-2.7125e+05,14
-79112,-2.703e+05,14
-79735,-2.7027e+05,14
-80300,-2.6969e+05,14
-81271,-2.6903e+05,14
-81748,-2.6983e+05,14
-81575,-2.6967e+05,14
-81697,-2.6914e+05,14
-82053,-2.6851e+05,14
-81256,-2.6883e+05,14
-81614,-2.6863e+05,14
-81607,-2.6938e+05,14
-81590,-2.696e+05,14
-80751,-2.699e+05,14
-80165,-2.6932e+05,14
-79036,-2.7021e+05,14
-79159,-2.7053e+05,14
-78073,-2.7183e+05,14
-78842,-2.7267e+05,14
-78430,-2.7281e+05,14
-77533,-2.7337e+05,14
-76981,-2.7349e+05,14
-77282,-2.7421e+05,14
-77088,-2.7368e+05,14
-75929,-2.7314e+05,14
-75285,-2.7176e+05,14
-75180,-2.699e+05,14
-73835,-2.6956e+05,14
-73744,-2.7055e+05,14
-76020,-2.7171e+05,14
-78741,-2.7272e+05,14
-80919,-2.7367e+05,14
-80056,-2.7243e+05,14
-79798,-2.7121e+05,14
-79091,-2.7003e+05,14
-79382,-2.6897e+05,14
-79228,-2.6922e+05,14
-79547,-2.6992e+05,14
-80950,-2.7014e+05,14
-81773,-2.7027e+05,14
-82735,-2.7158e+05,14
-84063,-2.7192e+05,14
-84505,-2.7116e+05,14
-83121,-2.6934e+05,14
-82828,-2.6917e+05,14
-82685,-2.7049e+05,14
-82883,-2.7099e+05,14
-82470,-2.7143e+05,14
-81078,-2.7215e+05,14
-80340,-2.7204e+05,14
-79155,-2.7205e+05,14
-77331,-2.7346e+05,14
-76327,-2.7296e+05,14
-75839,-2.7259e+05,14
-73836,-2.7143e+05,14
-73195,-2.7061e+05,14
-74960,-2.7341e+05,14
-77944,-2.7654e+05,14
-80151,-2.7687e+05,14
-80124,-2.7595e+05,14
-78851,-2.7396e+05,14
-78030,-2.7274e+05,14
-77522,-2.7257e+05,14
-77478,-2.7289e+05,14
-77879,-2.7317e+05,14
-78879,-2.7306e+05,14
-78629,-2.7238e+05,14
-79373,-2.7161e+05,14
-78947,-2.7027e+05,14
-79514,-2.6986e+05,14
-79119,-2.6914e+05,14
-80432,-2.6793e+05,14
-80535,-2.6805e+05,14
-80198,-2.6881e+05,14
-81056,-2.6941e+05,14
-81356,-2.7026e+05,14
-82178,-2.7073e+05,14
-82124,-2.71e+05,14
-82020,-2.7119e+05,14
-83159,-2.7239e+05,14
-83842,-2.7346e+05,14
-82899,-2.7402e+05,14
-82165,-2.7359e+05,14
-81620,-2.7319e+05,14
-79699,-2.7265e+05,14
-78381,-2.7293e+05,14
-78099,-2.7282e+05,14
-77153,-2.7223e+05,14
-76346,-2.7255e+05,14
-75908,-2.726e+05,14
-75169,-2.733e+05,14
-75768,-2.7249e+05,14
-74982,-2.7218e+05,14
-75029,-2.7169e+05,14
-74955,-2.7128e+05,14
-74507,-2.7071e+05,14
-75047,-2.7016e+05,14
-75677,-2.7049e+05,14
-77058,-2.715e+05,14
-78875,-2.7142e+05,14
-77958,-2.71e+05,14
-78645,-2.696e+05,14
-79629,-2.6996e+05,14
-81259,-2.7105e+05,14
-82887,-2.7153e+05,14
-83161,-2.7181e+05,14
-83780,-2.7178e+05,14
-83762,-2.7122e+05,14
-84047,-2.7189e+05,14
-82822,-2.7092e+05,14
-82246,-2.7156e+05,14
-82222,-2.7191e+05,14
-82974,-2.7186e+05,14
-82159,-2.7164e+05,14
-82667,-2.7155e+05,14
-81394,-2.7168e+05,14
-81115,-2.7246e+05,14
-80449,-2.7296e+05,14
-78964,-2.7342e+05,14
-78865,-2.7354e+05,14
-78383,-2.7323e+05,14
-77751,-2.7329e+05,14
-77088,-2.7333e+05,14
-77202,-2.735e+05,14
-77298,-2.7305e+05,14
-77272,-2.7313e+05,14
-76922,-2.7357e+05,14
-77102,-2.7301e+05,14
-76661,-2.7256e+05,14
-77882,-2.7304e+05,14
-78506,-2.7235e+05,14
-78524,-2.7205e+05,14
-78700,-2.7232e+05,14
-78034,-2.7134e+05,14
-79540,-2.7098e+05,14
-80013,-2.707e+05,14
-80647,-2.7066e+05,14
-80509,-2.7002e+05,14
-81530,-2.6974e+05,14
-81011,-2.6939e+05,14
-81193,-2.6913e+05,14
-81377,-2.6781e+05,14
-80859,-2.663e+05,14
-80518,-2.6781e+05,14
-80370,-2.6926e+05,14
-80318,-2.698e+05,14
-80234,-2.7004e+05,14
-80064,-2.7108e+05,14
-80968,-2.7136e+05,14
-81398,-2.7239e+05,14
-82124,-2.7275e+05,14
-80057,-2.7352e+05,14
-80060,-2.7291e+05,14
-79553,-2.7375e+05,14
-78229,-2.7376e+05,14
-77592,-2.7358e+05,14
-77191,-2.7343e+05,14
-76947,-2.728e+05,14
-76888,-2.7279e+05,14
-76939,-2.7278e+05,14
-75885,-2.7245e+05,14
-75659,-2.7217e+05,14
-76201,-2.7245e+05,14
-78234,-2.7342e+05,14
-79035,-2.7307e+05,14
-79335,-2.7227e+05,14
-79278,-2.7239e+05,14
-79975,-2.7171e+05,14
-79635,-2.7099e+05,14
-80425,-2.7053e+05,14
-81424,-2.7039e+05,14
-81936,-2.7018e+05,14
-82421,-2.7064e+05,14
-82121,-2.6993e+05,14
-82819,-2.7026e+05,14
-82831,-2.7051e+05,14
-82592,-2.7101e+05,14
-82635,-2.7149e+05,14
-82253,-2.7171e+05,14
-82768,-2.7202e+05,14
-82201,-2.7154e+05,14
-81184,-2.7173e+05,14
-81071,-2.7251e+05,14
-80825,-2.7204e+05,14
-79932,-2.7305e+05,14
-79041,-2.7329e+05,14
-78417,-2.7274e+05,14
-78474,-2.7275e+05,14
-77367,-2.7281e+05,14
-77506,-2.7287e+05,14
-76432,-2.7232e+05,14
-76537,-2.7254e+05,14
-76975,-2.7301e+05,14
-76703,-2.7274e+05,14
-76641,-2.7299e+05,14
-77190,-2.734e+05,14
-77262,-2.7295e+05,14
-77525,-2.719e+05,14
-78174,-2.7211e+05,14
-78353,-2.7175e+05,14
-77735,-2.7091e+05,14
-78890,-2.7103e+05,14
-79504,-2.7068e+05,14
-79911,-2.7029e+05,14
-81305,-2.7051e+05,14
-82084,-2.7076e+05,14
-82287,-2.7088e+05,14
-82209,-2.7044e+05,14
-82556,-2.7054e+05,14
-82476,-2.7105e+05,14
-81847,-2.7094e+05,14
-82248,-2.7077e+05,14
-81794,-2.7076e+05,14
-81782,-2.7094e+05,14
-81099,-2.7157e+05,14
-80644,-2.7147e+05,14
-80231,-2.7217e+05,14
-79413,-2.719e+05,14
-79260,-2.7243e+05,14
-78483,-2.7169e+05,14
-77776,-2.7217e+05,14
-77035,-2.7241e+05,14
-76794,-2.7239e+05,14
-76929,-2.7222e+05,14
-76435,-2.7192e+05,14
-76216,-2.7216e+05,14
-76297,-2.7232e+05,14
-76719,-2.7207e+05,14
-76382,-2.7188e+05,14
-76221,-2.7254e+05,14
-76760,-2.7256e+05,14
-76328,-2.72e+05,14
-76176,-2.7156e+05,14
-75833,-2.7032e+05,14
-77798,-2.6952e+05,14
-77522,-2.6891e+05,14
-78262,-2.6697e+05,14
-76940,-2.6643e+05,14
-76876,-2.6736e+05,14
-78072,-2.6792e+05,14
-79781,-2.6844e+05,14
-80914,-2.6939e+05,14
-80315,-2.693e+05,14
-80288,-2.71e+05,14
-81247,-2.7097e+05,14
-80719,-2.7028e+05,14
-80364,-2.7019e+05,14
-80786,-2.7078e+05,14
-82417,-2.7214e+05,14
-82602,-2.7281e+05,14
-81867,-2.7267e+05,14
-80139,-2.7305e+05,14
-77961,-2.7271e+05,14
-75702,-2.7238e+05,14
-75142,-2.7262e+05,14
-75843,-2.7284e+05,14
-75678,-2.7282e+05,14
-75140,-2.7256e+05,14
-75213,-2.7234e+05,14
-75454,-2.7061e+05,14
-73904,-2.6794e+05,14
-72940,-2.6735e+05,14
-73239,-2.6917e+05,14
-76555,-2.7207e+05,14
-78977,-2.7511e+05,14
-80813,-2.7618e+05,14
-81252,-2.7543e+05,14
-81963,-2.7319e+05,14
-82129,-2.7181e+05,14
-81308,-2.7217e+05,14
-81347,-2.7199e+05,14
-82039,-2.7172e+05,14
-82552,-2.7144e+05,14
-81901,-2.7091e+05,14
-81692,-2.7051e+05,14
-81286,-2.7127e+05,14
-81277,-2.7052e+05,14
-80978,-2.697e+05,14
-80955,-2.6955e+05,14
-79942,-2.6968e+05,14
-80229,-2.6996e+05,14
-80492,-2.6994e+05,14
-80332,-2.7021e+05,14
-79652,-2.718e+05,14
-78616,-2.7339e+05,14
-79360,-2.738e+05,14
-79019,-2.7436e+05,14
-78040,-2.7272e+05,14
-76681,-2.7129e+05,14
-75413,-2.7006e+05,14
-75102,-2.6983e+05,14
-75326,-2.697e+05,14
-75417,-2.7009e+05,14
-74897,-2.6953e+05,14
-73883,-2.6989e+05,14
-74400,-2.7134e+05,14
-76009,-2.7321e+05,14
-77771,-2.7488e+05,14
-79420,-2.7447e+05,14
-79244,-2.7408e+05,14
-78689,-2.733e+05,14
-80202,-2.7246e+05,14
-80750,-2.7236e+05,14
-81398,-2.7249e+05,14
-81415,-2.7228e+05,14
-81569,-2.7171e+05,14
-82597,-2.7153e+05,14
-82504,-2.7181e+05,14
-82114,-2.7136e+05,14
-81208,-2.7225e+05,14
-81184,-2.7211e+05,14
-79874,-2.7252e+05,14
-77519,-2.724e+05,14
-75155,-2.7163e+05,14
-73691,-2.7111e+05,14
-72268,-2.7061e+05,14
-71638,-2.7155e+05,14
-71139,-2.7111e+05,14
-69884,-2.7137e+05,14
-69620,-2.7152e+05,14
-69604,-2.7173e+05,14
-68204,-2.718e+05,14
-68414,-2.7175e+05,14
-68233,-2.7175e+05,14
-68733,-2.7208e+05,14
-68966,-2.713e+05,14
-69583,-2.7167e+05,14
-69568,-2.7119e+05,14
-70495,-2.704e+05,14
-70159,-2.7049e+05,14
-71134,-2.7047e+05,14
-73212,-2.7159e+05,14
-74288,-2.7173e+05,14
-75182,-2.7066e+05,14
-76251,-2.7021e+05,14
-77438,-2.7078e+05,14
-78313,-2.702e+05,14
-79413,-2.7083e+05,14
-80985,-2.7114e+05,14
-81521,-2.7116e+05,14
-81987,-2.711e+05,14
-83054,-2.7099e+05,14
-83337,-2.7139e+05,14
-83830,-2.7071e+05,14
-84186,-2.7103e+05,14
-83874,-2.7145e+05,14
-84623,-2.7169e+05,14
-84866,-2.7247e+05,14
-84758,-2.7244e+05,14
-85005,-2.7287e+05,14
-84754,-2.7309e+05,14
-83308,-2.7257e+05,14
-82549,-2.7259e+05,14
-81463,-2.7302e+05,14
-80860,-2.7284e+05,14
-80140,-2.7302e+05,14
-80494,-2.7315e+05,14
-80358,-2.7349e+05,14
-79485,-2.7332e+05,14
-78827,-2.7283e+05,14
-78630,-2.7283e+05,14
-78950,-2.7276e+05,14
-78296,-2.7147e+05,14
-78760,-2.7191e+05,14
-79328,-2.7227e+05,14
-79532,-2.7216e+05,14
-80248,-2.7188e+05,14
-80449,-2.7188e+05,14
-81023,-2.7139e+05,14
-81563,-2.7099e+05,14
-81847,-2.7071e+05,14
-82815,-2.7042e+05,14
-82754,-2.7031e+05,14
-82713,-2.7102e+05,14
-82619,-2.7074e+05,14
-83622,-2.7093e+05,14
-82856,-2.7133e+05,14
-83329,-2.7137e+05,14
-83149,-2.7183e+05,14
-82702,-2.7194e+05,14
-82027,-2.7197e+05,14
-81259,-2.7198e+05,14
-81080,-2.7171e+05,14
-81149,-2.7244e+05,14
-79738,-2.7213e+05,14
-79559,-2.7258e+05,14
-77866,-2.7296e+05,14
-78415,-2.7177e+05,14
-76740,-2.7122e+05,14
-77053,-2.7078e+05,14
-76591,-2.7079e+05,14
-76000,-2.7152e+05,14
-76054,-2.7141e+05,14
-75756,-2.7097e+05,14
-76277,-2.7109e+05,14
-76435,-2.7074e+05,14
-77310,-2.7133e+05,14
-77216,-2.7088e+05,14
-76058,-2.7067e+05,14
-76650,-2.7089e+05,14
-77055,-2.7139e+05,14
-78394,-2.7133e+05,14
-79557,-2.7171e+05,14
-80739,-2.7141e+05,14
-80756,-2.6989e+05,14
-80111,-2.6904e+05,14
-79779,-2.6826e+05,14
-79706,-2.6639e+05,14
-79513,-2.663e+05,14
-79298,-2.6831e+05,14
-79866,-2.7028e+05,14
-80554,-2.7075e+05,14
-79852,-2.702e+05,14
-79921,-2.7041e+05,14
-80652,-2.7175e+05,14
-82058,-2.7274e+05,14
-82316,-2.7313e+05,14
-81636,-2.7403e+05,14
-80696,-2.7461e+05,14
-80386,-2.7397e+05,14
-78979,-2.7287e+05,14
-77338,-2.717e+05,14
-76466,-2.7172e+05,14
-76512,-2.7122e+05,14
-76015,-2.7142e+05,14
-74945,-2.7236e+05,14
-76107,-2.7229e+05,14
-76990,-2.7352e+05,14
-77861,-2.7304e+05,14
-77819,-2.7188e+05,14
-76450,-2.702e+05,14
-76901,-2.7001e+05,14
-76887,-2.7018e+05,14
-77141,-2.7054e+05,14
-77635,-2.7108e+05,14
-78922,-2.7173e+05,14
-79713,-2.7216e+05,14
-80772,-2.7286e+05,14
-82176,-2.7234e+05,14
-82914,-2.716e+05,14
-82642,-2.6975e+05,14
-81708,-2.6983e+05,14
-81138,-2.7028e+05,14
-81919,-2.7082e+05,14
-82720,-2.7158e+05,14
-82899,-2.7104e+05,14
-82041,-2.7132e+05,14
-81065,-2.721e+05,14
-81174,-2.7311e+05,14
-81534,-2.7387e+05,14
-82480,-2.7363e+05,14
-80929,-2.7336e+05,14
-79646,-2.7423e+05,14
-79057,-2.7366e+05,14
-78077,-2.7363e+05,14
-78184,-2.7392e+05,14
-77306,-2.7281e+05,14
-76407,-2.7293e+05,14
-77004,-2.7417e+05,14
-76489,-2.7398e+05,14
-76260,-2.7382e+05,14
-76091,-2.7378e+05,14
-76170,-2.7255e+05,14
-76829,-2.7147e+05,14
-76898,-2.7092e+05,14
-77893,-2.7237e+05,14
-78449,-2.7273e+05,14
-78903,-2.7181e+05,14
-79070,-2.7126e+05,14
-79757,-2.7102e+05,14
-79881,-2.7138e+05,14
-80956,-2.7084e+05,14
-80991,-2.7004e+05,14
-81436,-2.7067e+05,14
-81810,-2.7114e+05,14
-82090,-2.7152e+05,14
-82054,-2.7189e+05,14
-82146,-2.7122e+05,14
-82381,-2.719e+05,14
-81631,-2.7181e+05,14
-81324,-2.7202e+05,14
-80867,-2.7148e+05,14
-80166,-2.72e+05,14
-80202,-2.7218e+05,14
-78944,-2.7266e+05,14
-78918,-2.7263e+05,14
-78117,-2.7302e+05,14
-78299,-2.7285e+05,14
-76841,-2.7312e+05,14
-76915,-2.7334e+05,14
-76514,-2.7283e+05,14
-76232,-2.7341e+05,14
-76317,-2.7296e+05,14
-76460,-2.726e+05,14
-76357,-2.7245e+05,14
-76433,-2.7241e+05,14
-76541,-2.7178e+05,14
-77670,-2.72e+05,14
-77743,-2.7127e+05,14
-77776,-2.7081e+05,14
-77873,-2.7116e+05,14
-78656,-2.7015e+05,14
-79541,-2.7097e+05,14
-80044,-2.7029e+05,14
-80456,-2.6997e+05,14
-81080,-2.7064e+05,14
-81116,-2.7022e+05,14
-81144,-2.7045e+05,14
-81690,-2.6999e+05,14
-80968,-2.6989e+05,14
-81222,-2.7069e+05,14
-81199,-2.7061e+05,14
-81496,-2.7062e+05,14
-80663,-2.7092e+05,14
-80973,-2.7081e+05,14
-80336,-2.7097e+05,14
-80089,-2.7106e+05,14
-79822,-2.7055e+05,14
-79153,-2.718e+05,14
-78506,-2.7233e+05,14
-78737,-2.7274e+05,14
-77185,-2.7232e+05,14
-77214,-2.7192e+05,14
-77127,-2.7205e+05,14
-76183,-2.7191e+05,14
-76468,-2.7209e+05,14
-75691,-2.7144e+05,14
-76016,-2.7182e+05,14
-76676,-2.7165e+05,14
-75950,-2.7116e+05,14
-76157,-2.7043e+05,14
-76419,-2.7038e+05,14
-75841,-2.7002e+05,14
-75820,-2.6987e+05,14
-77202,-2.6925e+05,14
-77015,-2.6792e+05,14
-76384,-2.675e+05,14
-76601,-2.6758e+05,14
-77602,-2.6847e+05,14
-78616,-2.6987e+05,14
-82049,-2.7083e+05,14
-84728,-2.7155e+05,14
-84620,-2.7317e+05,14
-85084,-2.7447e+05,14
-83962,-2.7384e+05,14
-83327,-2.7222e+05,14
-81461,-2.7114e+05,14
-80532,-2.7155e+05,14
-79600,-2.7204e+05,14
-80486,-2.7267e+05,14
-80895,-2.7286e+05,14
-79898,-2.7309e+05,14
-79859,-2.7363e+05,14
-79193,-2.7319e+05,14
-79040,-2.7312e+05,14
-77841,-2.7251e+05,14
-77266,-2.7289e+05,14
-76820,-2.7275e+05,14
-77379,-2.7304e+05,14
-76620,-2.7266e+05,14
-76279,-2.7235e+05,14
-76578,-2.7236e+05,14
-76751,-2.7296e+05,14
-77374,-2.7281e+05,14
-77172,-2.7222e+05,14
-77277,-2.7199e+05,14
-78106,-2.7219e+05,14
-77634,-2.7202e+05,14
-78676,-2.7152e+05,14
-79164,-2.7108e+05,14
-79271,-2.7009e+05,14
-79915,-2.6862e+05,14
-79377,-2.6755e+05,14
-79314,-2.6809e+05,14
-80258,-2.6808e+05,14
-81168,-2.6895e+05,14
-81160,-2.6925e+05,14
-80667,-2.6931e+05,14
-80068,-2.6941e+05,14
-79460,-2.6919e+05,14
-80189,-2.7024e+05,14
-80766,-2.7081e+05,14
-80422,-2.7237e+05,14
-80526,-2.7348e+05,14
-79955,-2.7395e+05,14
-78652,-2.737e+05,14
-78270,-2.7222e+05,14
-77726,-2.7205e+05,14
-75154,-2.7221e+05,14
-75330,-2.7246e+05,14
-75967,-2.7244e+05,14
-76495,-2.7259e+05,14
-78059,-2.7208e+05,14
-77987,-2.7269e+05,14
-78173,-2.7207e+05,14
-77367,-2.7166e+05,14
-76457,-2.7176e+05,14
-77288,-2.7193e+05,14
-78046,-2.7193e+05,14
-78393,-2.7219e+05,14
-78775,-2.7262e+05,14
-80418,-2.7163e+05,14
-79681,-2.7088e+05,14
-80138,-2.7036e+05,14
-80285,-2.7114e+05,14
-79891,-2.7159e+05,14
-80259,-2.719e+05,14
-81184,-2.7185e+05,14
-81953,-2.724e+05,14
-82089,-2.7143e+05,14
-81974,-2.7102e+05,14
-81869,-2.7102e+05,14
-81633,-2.7089e+05,14
-81921,-2.7146e+05,14
-81949,-2.7163e+05,14
-81064,-2.7156e+05,14
-80555,-2.7199e+05,14
-80369,-2.7145e+05,14
-79457,-2.7156e+05,14
-78786,-2.7202e+05,14
-77827,-2.7226e+05,14
-76978,-2.7212e+05,14
-76443,-2.7287e+05,14
-76495,-2.7229e+05,14
-76406,-2.7249e+05,14
-76307,-2.725e+05,14
-76631,-2.7248e+05,14
-76082,-2.7225e+05,14
-76261,-2.7238e+05,14
-76108,-2.7185e+05,14
-76356,-2.7067e+05,14
-76664,-2.6952e+05,14
-76456,-2.7034e+05,14
-77329,-2.7132e+05,14
-79030,-2.7211e+05,14
-79620,-2.719e+05,14
-80499,-2.7109e+05,14
-80089,-2.7161e+05,14
-81389,-2.7099e+05,14
-81749,-2.7104e+05,14
-81641,-2.7133e+05,14
-82048,-2.7034e+05,14
-80895,-2.7049e+05,14
-81462,-2.7149e+05,14
-81956,-2.7206e+05,14
-82293,-2.7126e+05,14
-82021,-2.7129e+05,14
-81264,-2.7152e+05,14
-80622,-2.7125e+05,14
-80000,-2.7059e+05,14
-79457,-2.7071e+05,14
-78965,-2.7168e+05,14
-79380,-2.7222e+05,14
-78621,-2.721e+05,14
-77721,-2.7184e+05,14
-77238,-2.7141e+05,14
-76396,-2.7209e+05,14
-76364,-2.7202e+05,14
-75888,-2.7213e+05,14
-75799,-2.7204e+05,14
-76296,-2.7166e+05,14
-76258,-2.7174e+05,14
-75630,-2.7155e+05,14
-76577,-2.7158e+05,14
-76242,-2.7122e+05,14
-78119,-2.7198e+05,14
-78245,-2.718e+05,14
-77950,-2.7137e+05,14
-78689,-2.7058e+05,14
-78516,-2.7077e+05,14
-79085,-2.7059e+05,14
-80599,-2.7038e+05,14
-80287,-2.7009e+05,14
-80257,-2.7001e+05,14
-80029,-2.7025e+05,14
-79921,-2.6911e+05,14
-79181,-2.6845e+05,14
-78709,-2.671e+05,14
-78004,-2.6596e+05,14
-77963,-2.6692e+05,14
-78676,-2.695e+05,14
-79727,-2.7027e+05,14
-80238,-2.7172e+05,14
-80292,-2.7206e+05,14
-79886,-2.7283e+05,14
-80443,-2.7145e+05,14
-78950,-2.7121e+05,14
-77824,-2.7191e+05,14
-77105,-2.7321e+05,14
-78529,-2.7488e+05,14
-79751,-2.7502e+05,14
-78087,-2.7423e+05,14
-78170,-2.7296e+05,14
-77293,-2.7156e+05,14
-76167,-2.7045e+05,14
-75901,-2.7015e+05,14
-74808,-2.6935e+05,14
-75735,-2.6893e+05,14
-75601,-2.6845e+05,14
-74447,-2.6779e+05,14
-74124,-2.6769e+05,14
-75481,-2.6783e+05,14
-76721,-2.6802e+05,14
-77993,-2.6779e+05,14
-78283,-2.6921e+05,14
-79612,-2.7003e+05,14
-80871,-2.6999e+05,14
-82570,-2.7174e+05,14
-83582,-2.734e+05,14
-85023,-2.7423e+05,14
-83913,-2.7361e+05,14
-83256,-2.7355e+05,14
-83376,-2.7307e+05,14
-82858,-2.7248e+05,14
-82124,-2.7259e+05,14
-80990,-2.7217e+05,14
-81954,-2.7235e+05,14
-81388,-2.7223e+05,14
-80260,-2.7274e+05,14
-79421,-2.7234e+05,14
-78513,-2.7299e+05,14
-78447,-2.7341e+05,14
-77235,-2.7275e+05,14
-77519,-2.7305e+05,14
-77000,-2.726e+05,14
-76808,-2.7267e+05,14
-77177,-2.7299e+05,14
-76869,-2.7276e+05,14
-76269,-2.7254e+05,14
-76767,-2.7207e+05,14
-76707,-2.726e+05,14
-77832,-2.7198e+05,14
-78291,-2.719e+05,14
-78534,-2.715e+05,14
-79193,-2.7123e+05,14
-79586,-2.713e+05,14
-79885,-2.7084e+05,14
-79922,-2.7095e+05,14
-80802,-2.7036e+05,14
-80909,-2.7052e+05,14
-81737,-2.704e+05,14
-82016,-2.6997e+05,14
-81642,-2.7079e+05,14
-81113,-2.7033e+05,14
-82040,-2.7088e+05,14
-81815,-2.7065e+05,14
-81719,-2.7037e+05,14
-80544,-2.7034e+05,14
-80036,-2.7091e+05,14
-80312,-2.7147e+05,14
-81008,-2.7149e+05,14
-78939,-2.7156e+05,14
-78217,-2.7224e+05,14
-77803,-2.7203e+05,14
-77966,-2.7284e+05,14
-77761,-2.7214e+05,14
-77355,-2.7299e+05,14
-76897,-2.7212e+05,14
-76691,-2.7243e+05,14
-76148,-2.7191e+05,14
-76468,-2.717e+05,14
-76346,-2.7147e+05,14
-76167,-2.7175e+05,14
-76485,-2.7214e+05,14
-77378,-2.7185e+05,14
-77953,-2.7185e+05,14
-78231,-2.7202e+05,14
-77603,-2.7102e+05,14
-79471,-2.7046e+05,14
-79938,-2.7071e+05,14
-79977,-2.7049e+05,14
-81204,-2.7075e+05,14
-81310,-2.7096e+05,14
-81458,-2.7118e+05,14
-81738,-2.7054e+05,14
-82192,-2.7081e+05,14
-82530,-2.7028e+05,14
-82247,-2.7044e+05,14
-81368,-2.7012e+05,14
-81372,-2.7147e+05,14
-81373,-2.7149e+05,14
-80749,-2.7123e+05,14
-80689,-2.7123e+05,14
-80534,-2.7131e+05,14
-79255,-2.7161e+05,14
-79287,-2.7167e+05,14
-78219,-2.7181e+05,14
-78554,-2.722e+05,14
-76983,-2.7152e+05,14
-76984,-2.7279e+05,14
-76790,-2.7294e+05,14
-76616,-2.7198e+05,14
-76438,-2.7183e+05,14
-76436,-2.7206e+05,14
-76461,-2.7207e+05,14
-76770,-2.7215e+05,14
-76268,-2.7192e+05,14
-77833,-2.7162e+05,14
-77522,-2.7131e+05,14
-77898,-2.7178e+05,14
-77817,-2.7123e+05,14
-78406,-2.7095e+05,14
-78984,-2.7037e+05,14
-79374,-2.6998e+05,14
-79835,-2.7009e+05,14
-80011,-2.689e+05,14
-80267,-2.6969e+05,14
-80561,-2.6957e+05,14
-80796,-2.6967e+05,14
-80619,-2.6925e+05,14
-80075,-2.6866e+05,14
-80315,-2.6979e+05,14
-80790,-2.6984e+05,14
-81328,-2.7144e+05,14
-80942,-2.718e+05,14
-80369,-2.7161e+05,14
-80114,-2.7093e+05,14
-79733,-2.7073e+05,14
-77771,-2.7028e+05,14
-76455,-2.7039e+05,14
-76174,-2.7125e+05,14
-76000,-2.7243e+05,14
-77832,-2.7304e+05,14
-78522,-2.7371e+05,14
-78520,-2.733e+05,14
-77460,-2.7319e+05,14
-76754,-2.7271e+05,14
-76128,-2.7224e+05,14
-74787,-2.7227e+05,14
-75522,-2.7211e+05,14
-75095,-2.7166e+05,14
-76154,-2.7097e+05,14
-77007,-2.7043e+05,14
-76789,-2.6934e+05,14
-77271,-2.675e+05,14
-76771,-2.6581e+05,14
-77144,-2.6652e+05,14
-78591,-2.6949e+05,14
-81845,-2.7235e+05,14
-83468,-2.7265e+05,14
-82917,-2.7172e+05,14
-83178,-2.7124e+05,14
-82130,-2.7053e+05,14
-82041,-2.7024e+05,14
-80962,-2.7045e+05,14
-81498,-2.7122e+05,14
-81790,-2.7138e+05,14
-81165,-2.7187e+05,14
-80600,-2.7142e+05,14
-80238,-2.7126e+05,14
-79464,-2.7166e+05,14
-77308,-2.7121e+05,14
-77326,-2.7099e+05,14
-76513,-2.7178e+05,14
-77104,-2.7181e+05,14
-77041,-2.7239e+05,14
-76258,-2.7103e+05,14
-75473,-2.7085e+05,14
-75158,-2.7109e+05,14
-75726,-2.7012e+05,14
-75367,-2.7045e+05,14
-75381,-2.719e+05,14
-76878,-2.7456e+05,14
-79139,-2.7612e+05,14
-80018,-2.7519e+05,14
-79356,-2.7393e+05,14
-78752,-2.7279e+05,14
-78302,-2.7257e+05,14
-79594,-2.7271e+05,14
-80426,-2.7251e+05,14
-80334,-2.7211e+05,14
-81225,-2.7166e+05,14
-81896,-2.7165e+05,14
-81270,-2.7068e+05,14
-81001,-2.696e+05,14
-79983,-2.6978e+05,14
-80500,-2.7027e+05,14
-80628,-2.705e+05,14
-81737,-2.7052e+05,14
-82001,-2.7064e+05,14
-81757,-2.6996e+05,14
-80666,-2.6942e+05,14
-78481,-2.6941e+05,14
-78856,-2.7054e+05,14
-79394,-2.7156e+05,14
-79906,-2.7315e+05,14
-79927,-2.7355e+05,14
-80045,-2.7361e+05,14
-78235,-2.7341e+05,14
-77572,-2.7228e+05,14
-76804,-2.7201e+05,14
-76671,-2.7175e+05,14
-77130,-2.7151e+05,14
-76888,-2.7171e+05,14
-76405,-2.7173e+05,14
-76506,-2.7109e+05,14
-76831,-2.7155e+05,14
-77294,-2.716e+05,14
-78021,-2.7209e+05,14
-78445,-2.718e+05,14
-77983,-2.7157e+05,14
-79522,-2.71e+05,14
-79331,-2.7148e+05,14
-80055,-2.7112e+05,14
-80319,-2.7022e+05,14
-81042,-2.7032e+05,14
-81182,-2.6995e+05,14
-82191,-2.7019e+05,14
-81913,-2.7064e+05,14
-81694,-2.7038e+05,14
-81988,-2.71e+05,14
-81829,-2.7078e+05,14
-81230,-2.7069e+05,14
-81286,-2.7053e+05,14
-81205,-2.7046e+05,14
-80669,-2.7114e+05,14
-80178,-2.7124e+05,14
-80165,-2.7155e+05,14
-78743,-2.7196e+05,14
-78300,-2.7221e+05,14
-77679,-2.7208e+05,14
-76739,-2.7219e+05,14
-76356,-2.7237e+05,14
-76959,-2.7226e+05,14
-75951,-2.724e+05,14
-76320,-2.7217e+05,14
-75880,-2.7222e+05,14
-76321,-2.7239e+05,14
-75611,-2.7164e+05,14
-76218,-2.7217e+05,14
-76600,-2.7202e+05,14
-77176,-2.7194e+05,14
-77393,-2.7142e+05,14
-77217,-2.715e+05,14
-78897,-2.7105e+05,14
-79110,-2.7123e+05,14
-79971,-2.7148e+05,14
-79625,-2.7083e+05,14
-81387,-2.7043e+05,14
-81604,-2.7017e+05,14
-81112,-2.7057e+05,14
-82019,-2.7052e+05,14
-81401,-2.7057e+05,14
-81459,-2.7033e+05,14
-81625,-2.7095e+05,14
-81475,-2.7122e+05,14
-81046,-2.7069e+05,14
-80313,-2.7114e+05,14
-80219,-2.7155e+05,14
-79706,-2.7155e+05,14
-79570,-2.7146e+05,14
-78669,-2.7174e+05,14
-77858,-2.7199e+05,14
-77759,-2.717e+05,14
-77556,-2.7223e+05,14
-76905,-2.7186e+05,14
-76360,-2.726e+05,14
-75783,-2.7208e+05,14
-75333,-2.7193e+05,14
-75580,-2.7243e+05,14
-75767,-2.7228e+05,14
-75108,-2.716e+05,14
-75148,-2.7147e+05,14
-75778,-2.7161e+05,14
-75674,-2.7176e+05,14
-76265,-2.7107e+05,14
-75876,-2.7037e+05,14
-75947,-2.6987e+05,14
-77247,-2.6838e+05,14
-77577,-2.6803e+05,14
-78867,-2.6901e+05,14
-80972,-2.6922e+05,14
-81817,-2.7043e+05,14
-81211,-2.7078e+05,14
-81837,-2.7055e+05,14
-82385,-2.7114e+05,14
-82730,-2.7191e+05,14
-83087,-2.7189e+05,14
-82352,-2.717e+05,14
-81527,-2.7053e+05,14
-80872,-2.6878e+05,14
-79095,-2.688e+05,14
-78682,-2.702e+05,14
-79111,-2.7101e+05,14
-77987,-2.7083e+05,14
-76897,-2.6941e+05,14
-75096,-2.6831e+05,14
-74655,-2.6838e+05,14
-72342,-2.6914e+05,14
-72064,-2.6854e+05,14
-72356,-2.676e+05,14
-72538,-2.6875e+05,14
-74409,-2.7212e+05,14
-76797,-2.7389e+05,14
-76634,-2.7218e+05,14
-75653,-2.7233e+05,14
-76698,-2.734e+05,14
-77446,-2.7411e+05,14
-79234,-2.7303e+05,14
-79043,-2.7134e+05,14
-78388,-2.7168e+05,14
-78872,-2.719e+05,14
-79048,-2.7269e+05,14
-81043,-2.7325e+05,14
-82611,-2.7324e+05,14
-83732,-2.7333e+05,14
-79234,-2.7303e+05,14
-79043,-2.7134e+05,14
-78388,-2.7168e+05,14
-78872,-2.719e+05,14
-79048,-2.7269e+05,14
-81043,-2.7325e+05,14
-82611,-2.7324e+05,14
-83732,-2.7333e+05,14
-79234,-2.7303e+05,14
-79043,-2.7134e+05,14
-78388,-2.7168e+05,14
-78872,-2.719e+05,14
-79048,-2.7269e+05,14
-81043,-2.7325e+05,14
-82611,-2.7324e+05,14
-83732,-2.7333e+05,14
-79234,-2.7303e+05,14
-79043,-2.7134e+05,14
-78388,-2.7168e+05,14
-78872,-2.719e+05,14
-79048,-2.7269e+05,14
-81043,-2.7325e+05,14
-82611,-2.7324e+05,14
-83732,-2.7333e+05,14
-84530,-2.7179e+05,14
-84782,-2.7194e+05,14
-84544,-2.7236e+05,14
-82906,-2.7113e+05,14
-81612,-2.7128e+05,14
-82233,-2.7173e+05,14
-81508,-2.7181e+05,14
-81534,-2.7122e+05,14
-80956,-2.7126e+05,14
-80639,-2.7183e+05,14
-80178,-2.7162e+05,14
-80122,-2.7227e+05,14
-78877,-2.7273e+05,14
-78465,-2.7247e+05,14
-77889,-2.7272e+05,14
-77229,-2.733e+05,14
-76045,-2.727e+05,14
-76176,-2.725e+05,14
-75781,-2.7258e+05,14
-75724,-2.722e+05,14
-75374,-2.7263e+05,14
-75321,-2.7276e+05,14
-75215,-2.7225e+05,14
-75378,-2.7208e+05,14
-75995,-2.7204e+05,14
-76342,-2.7214e+05,14
-76480,-2.7215e+05,14
-76960,-2.7108e+05,14
-77545,-2.7078e+05,14
-78757,-2.7108e+05,14
-79244,-2.708e+05,14
-79537,-2.7041e+05,14
-80739,-2.7028e+05,14
-81279,-2.702e+05,14
-81395,-2.7099e+05,14
-82551,-2.7071e+05,14
-82360,-2.7071e+05,14
-82277,-2.707e+05,14
-83021,-2.7108e+05,14
-81940,-2.7085e+05,14
-81679,-2.7108e+05,14
-81383,-2.7113e+05,14
-80543,-2.7086e+05,14
-80602,-2.7101e+05,14
-80631,-2.7101e+05,14
-79354,-2.7139e+05,14
-79205,-2.7212e+05,14
-79356,-2.7317e+05,14
-78737,-2.7296e+05,14
-77923,-2.7314e+05,14
-77300,-2.7353e+05,14
-77104,-2.7302e+05,14
-76119,-2.7251e+05,14
-75739,-2.7211e+05,14
-75255,-2.716e+05,14
-74678,-2.7192e+05,14
-74785,-2.7147e+05,14
-75496,-2.7183e+05,14
-75727,-2.7145e+05,14
-75968,-2.7114e+05,14
-76745,-2.7115e+05,14
-76494,-2.7136e+05,14
-77509,-2.7072e+05,14
-78101,-2.7093e+05,14
-78702,-2.71e+05,14
-80117,-2.7091e+05,14
-80343,-2.7118e+05,14
-79951,-2.706e+05,14
-81144,-2.7059e+05,14
-80603,-2.7074e+05,14
-80588,-2.704e+05,14
-80025,-2.7048e+05,14
-80693,-2.7073e+05,14
-80731,-2.7008e+05,14
-80082,-2.7084e+05,14
-79879,-2.7047e+05,14
-79635,-2.699e+05,14
-78883,-2.7027e+05,14
-78492,-2.709e+05,14
-77888,-2.7112e+05,14
-76895,-2.7218e+05,14
-77372,-2.7155e+05,14
-76376,-2.7175e+05,14
-76109,-2.7164e+05,14
-75734,-2.7091e+05,14
-75262,-2.7202e+05,14
-75874,-2.7253e+05,14
-76047,-2.7203e+05,14
-75794,-2.7186e+05,14
-76389,-2.7176e+05,14
-76905,-2.7185e+05,14
-77094,-2.7116e+05,14
-77682,-2.7054e+05,14
-78314,-2.7066e+05,14
-78025,-2.7048e+05,14
-78873,-2.7044e+05,14
-79639,-2.6987e+05,14
-79755,-2.6986e+05,14
-80238,-2.7028e+05,14
-80414,-2.6996e+05,14
-80526,-2.6903e+05,14
-80725,-2.6891e+05,14
-79877,-2.6801e+05,14
-79237,-2.6693e+05,14
-78169,-2.6727e+05,14
-78577,-2.6707e+05,14
-77990,-2.6603e+05,14
-77894,-2.6407e+05,14
-76789,-2.6344e+05,14
-77014,-2.6504e+05,14
-78812,-2.6886e+05,14
-80954,-2.7078e+05,14
-79743,-2.7133e+05,14
-79644,-2.7149e+05,14
-79641,-2.7185e+05,14
-79430,-2.7256e+05,14
-79250,-2.732e+05,14
-78110,-2.7488e+05,14
-76233,-2.7496e+05,14
-77041,-2.7603e+05,14
-78660,-2.7646e+05,14
-80454,-2.7665e+05,14
-80462,-2.7585e+05,14
-79694,-2.7493e+05,14
-79422,-2.7386e+05,14
-79189,-2.7362e+05,14
-78631,-2.7262e+05,14
-79136,-2.7185e+05,14
-79986,-2.7189e+05,14
-80999,-2.7172e+05,14
-80930,-2.7124e+05,14
-81236,-2.707e+05,14
-81827,-2.709e+05,14
-82798,-2.7086e+05,14
-82140,-2.7093e+05,14
-82710,-2.7083e+05,14
-83117,-2.7104e+05,14
-83488,-2.7084e+05,14
-82225,-2.7096e+05,14
-82693,-2.7122e+05,14
-81747,-2.7121e+05,14
-82250,-2.7103e+05,14
-80402,-2.7158e+05,14
-80524,-2.7129e+05,14
-80115,-2.7153e+05,14
-78566,-2.7156e+05,14
-78752,-2.7131e+05,14
-77677,-2.6992e+05,14
-77939,-2.71e+05,14
-77441,-2.7216e+05,14
-76429,-2.7232e+05,14
-75981,-2.7236e+05,14
-75991,-2.7315e+05,14
-77148,-2.7375e+05,14
-76623,-2.7417e+05,14
-76576,-2.7348e+05,14
-77064,-2.7358e+05,14
-77250,-2.7257e+05,14
-77541,-2.7202e+05,14
-77653,-2.7188e+05,14
-76813,-2.7158e+05,14
-77234,-2.7077e+05,14
-78276,-2.7069e+05,14
-79719,-2.7043e+05,14
-80640,-2.7e+05,14
-81711,-2.7027e+05,14
-81613,-2.7075e+05,14
-81905,-2.7028e+05,14
-82468,-2.6991e+05,14
-82557,-2.7035e+05,14
-82201,-2.7015e+05,14
-82247,-2.7012e+05,14
-81802,-2.7075e+05,14
-82433,-2.6991e+05,14
-81200,-2.7027e+05,14
-81775,-2.7047e+05,14
-80682,-2.7078e+05,14
-80495,-2.7185e+05,14
-79885,-2.721e+05,14
-79317,-2.7247e+05,14
-78707,-2.7307e+05,14
-78288,-2.7341e+05,14
-77436,-2.7361e+05,14
-76571,-2.7329e+05,14
-77599,-2.7296e+05,14
-76477,-2.7285e+05,14
-76997,-2.7287e+05,14
-76518,-2.7273e+05,14
-76783,-2.7277e+05,14
-76864,-2.7267e+05,14
-76765,-2.7232e+05,14
-77507,-2.7208e+05,14
-77887,-2.7179e+05,14
-78327,-2.7134e+05,14
-78831,-2.7127e+05,14
-79139,-2.7155e+05,14
-80109,-2.703e+05,14
-80720,-2.6999e+05,14
-80513,-2.7033e+05,14
-81576,-2.7031e+05,14
-81656,-2.6981e+05,14
-81804,-2.701e+05,14
-82026,-2.6957e+05,14
-81838,-2.6982e+05,14
-81845,-2.7047e+05,14
-81697,-2.7051e+05,14
-81911,-2.7007e+05,14
-81743,-2.7021e+05,14
-80891,-2.7049e+05,14
-80005,-2.6992e+05,14
-80003,-2.7078e+05,14
-79839,-2.7093e+05,14
-79141,-2.7145e+05,14
-78305,-2.7185e+05,14
-77694,-2.7284e+05,14
-76966,-2.7248e+05,14
-77123,-2.7215e+05,14
-76275,-2.7252e+05,14
-75994,-2.7213e+05,14
-75536,-2.7231e+05,14
-75633,-2.7212e+05,14
-76398,-2.7238e+05,14
-76246,-2.7163e+05,14
-76129,-2.7243e+05,14
-76824,-2.7232e+05,14
-76355,-2.7211e+05,14
-76911,-2.7233e+05,14
-77316,-2.7028e+05,14
-78822,-2.6987e+05,14
-79290,-2.7033e+05,14
-79262,-2.6914e+05,14
-79417,-2.6774e+05,14
-80171,-2.6804e+05,14
-79986,-2.6824e+05,14
-79332,-2.686e+05,14
-80105,-2.6888e+05,14
-80783,-2.7083e+05,14
-81624,-2.7153e+05,14
-82792,-2.7138e+05,14
-82509,-2.7237e+05,14
-82607,-2.7151e+05,14
-81606,-2.7275e+05,14
-81170,-2.7238e+05,14
-80980,-2.7246e+05,14
-80969,-2.7263e+05,14
-79517,-2.715e+05,14
-79093,-2.7117e+05,14
-78174,-2.719e+05,14
-77847,-2.7269e+05,14
-76753,-2.738e+05,14
-76736,-2.7338e+05,14
-77309,-2.7325e+05,14
-76959,-2.7342e+05,14
-76949,-2.7324e+05,14
-76783,-2.7229e+05,14
-76937,-2.7246e+05,14
-76797,-2.7201e+05,14
-76464,-2.7209e+05,14
-77300,-2.7073e+05,14
-77764,-2.7078e+05,14
-78410,-2.7092e+05,14
-77930,-2.7051e+05,14
-78297,-2.7029e+05,14
-79064,-2.6928e+05,14
-78835,-2.6882e+05,14
-79310,-2.685e+05,14
-79548,-2.6813e+05,14
-80402,-2.6904e+05,14
-80704,-2.6832e+05,14
-81485,-2.6876e+05,14
-81188,-2.6808e+05,14
-81430,-2.6774e+05,14
-80410,-2.6676e+05,14
-80520,-2.6673e+05,14
-80292,-2.6733e+05,14
-79994,-2.6843e+05,14
-79139,-2.6959e+05,14
-78695,-2.7203e+05,14
-79500,-2.7297e+05,14
-79219,-2.7346e+05,14
-78142,-2.735e+05,14
-77798,-2.7479e+05,14
-76881,-2.7505e+05,14
-76390,-2.7505e+05,14
-77506,-2.7428e+05,14
-76879,-2.7395e+05,14
-77255,-2.7306e+05,14
-76881,-2.719e+05,14
-75924,-2.7182e+05,14
-75940,-2.7262e+05,14
-76357,-2.7258e+05,14
-78293,-2.7324e+05,14
-80096,-2.736e+05,14
-79392,-2.7319e+05,14
-79265,-2.726e+05,14
-80822,-2.7148e+05,14
-79948,-2.7083e+05,14
-81682,-2.7026e+05,14
-81826,-2.7025e+05,14
-82553,-2.7018e+05,14
-82386,-2.7045e+05,14
-82373,-2.7034e+05,14
-82416,-2.6982e+05,14
-82591,-2.701e+05,14
-82552,-2.7018e+05,14
-82409,-2.7049e+05,14
-82164,-2.711e+05,14
-82073,-2.7056e+05,14
-80998,-2.7059e+05,14
-81083,-2.7096e+05,14
-80473,-2.7145e+05,14
-80718,-2.7168e+05,14
-79621,-2.7228e+05,14
-78381,-2.7273e+05,14
-78420,-2.7372e+05,14
-77804,-2.7304e+05,14
-77339,-2.7291e+05,14
-77648,-2.7333e+05,14
-76455,-2.731e+05,14
-76412,-2.726e+05,14
-76251,-2.7223e+05,14
-76342,-2.7229e+05,14
-76507,-2.7246e+05,14
-76677,-2.7171e+05,14
-76529,-2.7195e+05,14
-77042,-2.714e+05,14
-78598,-2.7107e+05,14
-78538,-2.709e+05,14
-78427,-2.7023e+05,14
-79596,-2.7025e+05,14
-80410,-2.7001e+05,14
-81198,-2.6932e+05,14
-81372,-2.6973e+05,14
-81869,-2.7e+05,14
-81570,-2.707e+05,14
-82490,-2.7036e+05,14
-82579,-2.6989e+05,14
-82620,-2.7047e+05,14
-82609,-2.706e+05,14
-82211,-2.7058e+05,14
-82106,-2.7096e+05,14
-80346,-2.7129e+05,14
-79743,-2.7138e+05,14
-79521,-2.7175e+05,14
-79134,-2.7181e+05,14
-77974,-2.72e+05,14
-77532,-2.7234e+05,14
-77247,-2.7246e+05,14
-77267,-2.7195e+05,14
-76844,-2.7308e+05,14
-76010,-2.7261e+05,14
-76317,-2.7224e+05,14
-76489,-2.7255e+05,14
-76168,-2.722e+05,14
-76119,-2.7235e+05,14
-76154,-2.7146e+05,14
-76119,-2.7131e+05,14
-77104,-2.7134e+05,14
-77864,-2.7171e+05,14
-77933,-2.7085e+05,14
-77768,-2.7097e+05,14
-78276,-2.709e+05,14
-79343,-2.6989e+05,14
-80360,-2.6954e+05,14
-80190,-2.6881e+05,14
-80948,-2.6925e+05,14
-81231,-2.6924e+05,14
-81607,-2.6916e+05,14
-81405,-2.689e+05,14
-82239,-2.6963e+05,14
-82236,-2.6974e+05,14
-82750,-2.7053e+05,14
-82708,-2.7046e+05,14
-82469,-2.7088e+05,14
-82097,-2.7065e+05,14
-82074,-2.7097e+05,14
-81254,-2.7033e+05,14
-80245,-2.7114e+05,14
-79809,-2.7102e+05,14
-79436,-2.7161e+05,14
-79118,-2.7184e+05,14
-77937,-2.7224e+05,14
-77793,-2.7249e+05,14
-77435,-2.7262e+05,14
-77804,-2.7289e+05,14
-77247,-2.7296e+05,14
-77234,-2.7325e+05,14
-77448,-2.7323e+05,14
-77074,-2.7236e+05,14
-76859,-2.7161e+05,14
-77327,-2.7141e+05,14
-77637,-2.716e+05,14
-78121,-2.7121e+05,14
-77939,-2.7104e+05,14
-77991,-2.699e+05,14
-78887,-2.6928e+05,14
-79111,-2.697e+05,14
-80194,-2.7001e+05,14
-80266,-2.6976e+05,14
-81281,-2.702e+05,14
-82420,-2.7001e+05,14
-81577,-2.6975e+05,14
-81494,-2.7018e+05,14
-81780,-2.6939e+05,14
-81645,-2.7014e+05,14
-81186,-2.6974e+05,14
-80260,-2.692e+05,14
-79574,-2.6869e+05,14
-78778,-2.6843e+05,14
-78020,-2.678e+05,14
-77264,-2.6695e+05,14
-76568,-2.6676e+05,14
-74368,-2.6584e+05,14
-72924,-2.648e+05,14
-72870,-2.6568e+05,14
-73216,-2.6731e+05,14
-75615,-2.7011e+05,14
-78929,-2.7414e+05,14
-80036,-2.7604e+05,14
-79917,-2.7627e+05,14
-77810,-2.7525e+05,14
-76708,-2.7427e+05,14
-77293,-2.7411e+05,14
-76899,-2.7337e+05,14
-77728,-2.7299e+05,14
-78941,-2.7306e+05,14
-79325,-2.7341e+05,14
-79802,-2.7388e+05,14
-79996,-2.7364e+05,14
-81127,-2.7278e+05,14
-82307,-2.7229e+05,14
-82182,-2.7114e+05,14
-82627,-2.7096e+05,14
-82250,-2.6999e+05,14
-82274,-2.7028e+05,14
-82126,-2.6981e+05,14
-81713,-2.7018e+05,14
-82782,-2.7095e+05,14
-82846,-2.708e+05,14
-82628,-2.7087e+05,14
-81785,-2.7137e+05,14
-81594,-2.7169e+05,14
-81938,-2.7186e+05,14
-81872,-2.7212e+05,14
-81636,-2.7344e+05,14
-80544,-2.7343e+05,14
-80010,-2.7293e+05,14
-78926,-2.7299e+05,14
-78741,-2.7305e+05,14
-78277,-2.7344e+05,14
-78219,-2.7332e+05,14
-77884,-2.7289e+05,14
-77284,-2.7235e+05,14
-77196,-2.7264e+05,14
-77401,-2.7177e+05,14
-77634,-2.7241e+05,14
-77360,-2.7174e+05,14
-77454,-2.723e+05,14
-77959,-2.7208e+05,14
-78760,-2.7222e+05,14
-79289,-2.7227e+05,14
-78711,-2.7155e+05,14
-80194,-2.7093e+05,14
-79952,-2.7001e+05,14
-80380,-2.6939e+05,14
-80281,-2.6843e+05,14
-80671,-2.6779e+05,14
-79749,-2.664e+05,14
-80016,-2.6663e+05,14
-79311,-2.6649e+05,14
-79188,-2.6564e+05,14
-77424,-2.6654e+05,14
-76606,-2.6644e+05,14
-76555,-2.6677e+05,14
-79240,-2.6847e+05,14
-81728,-2.7183e+05,14
-84664,-2.7381e+05,14
-84703,-2.7363e+05,14
-83946,-2.7398e+05,14
-83518,-2.7517e+05,14
-82367,-2.749e+05,14
-82030,-2.7442e+05,14
-79815,-2.7333e+05,14
-78822,-2.734e+05,14
-78574,-2.7242e+05,14
-78108,-2.7217e+05,14
-78155,-2.7203e+05,14
-77498,-2.7224e+05,14
-77226,-2.7225e+05,14
-77321,-2.7217e+05,14
-77570,-2.7206e+05,14
-78463,-2.7169e+05,14
-78860,-2.7175e+05,14
-78931,-2.7091e+05,14
-78828,-2.7108e+05,14
-80354,-2.7069e+05,14
-80456,-2.7023e+05,14
-80569,-2.7044e+05,14
-80355,-2.7042e+05,14
-81833,-2.6947e+05,14
-81830,-2.6995e+05,14
-82212,-2.6956e+05,14
-82485,-2.6966e+05,14
-82221,-2.6968e+05,14
-82415,-2.6997e+05,14
-82304,-2.7015e+05,14
-82854,-2.7017e+05,14
-82449,-2.7029e+05,14
-81656,-2.7035e+05,14
-80926,-2.7088e+05,14
-81486,-2.7057e+05,14
-80785,-2.7144e+05,14
-82367,-2.749e+05,14
-82030,-2.7442e+05,14
-79815,-2.7333e+05,14
-78822,-2.734e+05,14
-78574,-2.7242e+05,14
-78108,-2.7217e+05,14
-78155,-2.7203e+05,14
-77498,-2.7224e+05,14
-77226,-2.7225e+05,14
-77321,-2.7217e+05,14
-77570,-2.7206e+05,14
-78463,-2.7169e+05,14
-78860,-2.7175e+05,14
-78931,-2.7091e+05,14
-78828,-2.7108e+05,14
-80354,-2.7069e+05,14
-80456,-2.7023e+05,14
-80569,-2.7044e+05,14
-80355,-2.7042e+05,14
-81833,-2.6947e+05,14
-81830,-2.6995e+05,14
-82212,-2.6956e+05,14
-82485,-2.6966e+05,14
-82221,-2.6968e+05,14
-82415,-2.6997e+05,14
-82304,-2.7015e+05,14
-82854,-2.7017e+05,14
-82449,-2.7029e+05,14
-81656,-2.7035e+05,14
-80926,-2.7088e+05,14
-81486,-2.7057e+05,14
-80785,-2.7144e+05,14
-82367,-2.749e+05,14
-82030,-2.7442e+05,14
-79815,-2.7333e+05,14
-78822,-2.734e+05,14
-78574,-2.7242e+05,14
-78108,-2.7217e+05,14
-78155,-2.7203e+05,14
-77498,-2.7224e+05,14
-77226,-2.7225e+05,14
-77321,-2.7217e+05,14
-77570,-2.7206e+05,14
-78463,-2.7169e+05,14
-78860,-2.7175e+05,14
-78931,-2.7091e+05,14
-78828,-2.7108e+05,14
-80354,-2.7069e+05,14
-80456,-2.7023e+05,14
-80569,-2.7044e+05,14
-80355,-2.7042e+05,14
-81833,-2.6947e+05,14
-81830,-2.6995e+05,14
-82212,-2.6956e+05,14
-82485,-2.6966e+05,14
-82221,-2.6968e+05,14
-82415,-2.6997e+05,14
-82304,-2.7015e+05,14
-82854,-2.7017e+05,14
-82449,-2.7029e+05,14
-81656,-2.7035e+05,14
-80926,-2.7088e+05,14
-81486,-2.7057e+05,14
-80785,-2.7144e+05,14
-79986,-2.7197e+05,14
-79178,-2.7206e+05,14
-78533,-2.7209e+05,14
-78474,-2.7228e+05,14
-78143,-2.7229e+05,14
-77034,-2.7231e+05,14
-77292,-2.7246e+05,14
-76734,-2.7249e+05,14
-76880,-2.7234e+05,14
-76902,-2.7165e+05,14
-76796,-2.721e+05,14
-77012,-2.7162e+05,14
-77180,-2.7161e+05,14
-77391,-2.7111e+05,14
-78995,-2.7065e+05,14
-78289,-2.7104e+05,14
-78580,-2.7076e+05,14
-80103,-2.7013e+05,14
-79485,-2.6984e+05,14
-80660,-2.7028e+05,14
-81558,-2.6911e+05,14
-82046,-2.7028e+05,14
-81884,-2.6945e+05,14
-82535,-2.6981e+05,14
-82472,-2.7016e+05,14
-82329,-2.6991e+05,14
-82483,-2.6989e+05,14
-82876,-2.7036e+05,14
-82113,-2.7042e+05,14
-81191,-2.7057e+05,14
-81389,-2.7069e+05,14
-81036,-2.7107e+05,14
-80853,-2.7117e+05,14
-79449,-2.7176e+05,14
-78987,-2.7202e+05,14
-78803,-2.7214e+05,14
-78609,-2.7236e+05,14
-77416,-2.7282e+05,14
-77122,-2.7249e+05,14
-77008,-2.7261e+05,14
-76421,-2.7283e+05,14
-76907,-2.7225e+05,14
-76647,-2.7243e+05,14
-76529,-2.7189e+05,14
-76314,-2.7163e+05,14
-75849,-2.7066e+05,14
-76660,-2.6976e+05,14
-76346,-2.6957e+05,14
-76545,-2.6913e+05,14
-76105,-2.6789e+05,14
-77624,-2.6716e+05,14
-77667,-2.6724e+05,14
-79027,-2.6794e+05,14
-80245,-2.6813e+05,14
-80429,-2.6832e+05,14
-81055,-2.6896e+05,14
-82133,-2.7097e+05,14
-82937,-2.7162e+05,14
-83011,-2.7122e+05,14
-82366,-2.7141e+05,14
-82821,-2.7065e+05,14
-82843,-2.708e+05,14
-82362,-2.7044e+05,14
-80284,-2.6951e+05,14
-79464,-2.6948e+05,14
-78903,-2.7053e+05,14
-79268,-2.7182e+05,14
-79884,-2.7293e+05,14
-79806,-2.737e+05,14
-79331,-2.7351e+05,14
-78178,-2.7323e+05,14
-77277,-2.718e+05,14
-76418,-2.7132e+05,14
-74588,-2.7061e+05,14
-73987,-2.7003e+05,14
-73481,-2.6937e+05,14
-73024,-2.6961e+05,14
-73844,-2.7005e+05,14
-73917,-2.7011e+05,14
-75050,-2.6903e+05,14
-75434,-2.6808e+05,14
-76011,-2.6772e+05,14
-77986,-2.6755e+05,14
-79464,-2.6886e+05,14
-80928,-2.6999e+05,14
-83398,-2.7205e+05,14
-84149,-2.7288e+05,14
-84861,-2.7198e+05,14
-83091,-2.7094e+05,14
-82503,-2.6974e+05,14
-82361,-2.6985e+05,14
-83619,-2.7079e+05,14
-83525,-2.7152e+05,14
-83453,-2.7191e+05,14
-83176,-2.7125e+05,14
-83071,-2.7168e+05,14
-82279,-2.7107e+05,14
-81367,-2.7167e+05,14
-81481,-2.7186e+05,14
-81331,-2.7201e+05,14
-80257,-2.7245e+05,14
-79511,-2.7272e+05,14
-79439,-2.7242e+05,14
-77934,-2.7237e+05,14
-77852,-2.7221e+05,14
-77790,-2.7241e+05,14
-76924,-2.7234e+05,14
-76651,-2.7238e+05,14
-76818,-2.7227e+05,14
-76507,-2.7167e+05,14
-77043,-2.7117e+05,14
-77076,-2.7135e+05,14
-77135,-2.7108e+05,14
-76631,-2.7092e+05,14
-77736,-2.7138e+05,14
-77816,-2.7077e+05,14
-77718,-2.698e+05,14
-83356,-2.6971e+05,14
-82573,-2.7048e+05,14
