-0.15220728224654925,-0.9089695153725899,0.0
-0.15235998730763128,-0.9081227201667535,0.0
-0.15032722513089006,-0.9084809796769151,0.0
-0.15073179438362685,-0.9084158415841584,0.0
-0.14776098683166747,-0.9092626367899947,0.0
-0.14884975408535617,-0.9088066701406983,0.0
-0.14857409170236396,-0.9083181344450234,0.0
-0.14859987307631287,-0.9076016154247004,0.0
-0.1483876725368872,-0.907764460656592,0.0
-0.14785221323179437,-0.9080575820739969,0.0
-0.1490460891638902,-0.9076016154247004,0.0
-0.1492265587815326,-0.9070153725898906,0.0
-0.15143185784547042,-0.9071456487754038,0.0
-0.15230842455973345,-0.9059731631057842,0.0
-0.15243534824686658,-0.9060708702449193,0.0
-0.1547179914326511,-0.9062011464304325,0.0
-0.15585832143423767,-0.9053543512245962,0.0
-0.15612803426939553,-0.9054846274101094,0.0
-0.15773044581945106,-0.9043772798332465,0.0
-0.1582341742027606,-0.9046704012506513,0.0
-0.15812708234174203,-0.9047029702970297,0.0
-0.15927336189116295,-0.9030745179781136,0.0
-0.15808345232429002,-0.9032699322563835,0.0
-0.15836506425511662,-0.9046704012506513,0.0
-0.15902348088211962,-0.9036607608129233,0.0
-0.1573556243058861,-0.9034002084418968,0.0
-0.15660598127875613,-0.9047029702970297,0.0
-0.15590790099952404,-0.9046704012506513,0.0
-0.15399611296208154,-0.9050612298071913,0.0
-0.15268721243852135,-0.9058428869202709,0.0
-0.1509757258448358,-0.9059080250130276,0.0
-0.15070997937490085,-0.9078621677957269,0.0
-0.14928208789465333,-0.9065919749869724,0.0
-0.14805648104077423,-0.9066896821261073,0.0
-0.1479791369189275,-0.9077970297029703,0.0
-0.14575202284626368,-0.9095557582073996,0.0
-0.14374702522608282,-0.9093603439291298,0.0
-0.14445105505314929,-0.9079924439812402,0.0
-0.14320561637315565,-0.9088392391870767,0.0
-0.1431857845470411,-0.9093603439291298,0.0
-0.14293193717277486,-0.9104025534132361,0.0
-0.14158932254481993,-0.90877410109432,0.0
-0.14204545454545456,-0.9084158415841584,0.0
-0.14204545454545456,-0.9082855653986451,0.0
-0.14307075995557672,-0.9063639916623242,0.0
-0.14344756465175312,-0.905940594059406,0.0
-0.14382833571315246,-0.9042795726941115,0.0
-0.14298548310328416,-0.903823606044815,0.0
-0.14428645089639855,-0.902911672746222,0.0
-0.14569451055053148,-0.9021300156331422,0.0
-0.1464719181342218,-0.9001433038040646,0.0
-0.14878629224178963,-0.9012832204273059,0.0
-0.14922854196414406,-0.900990099009901,0.0
-0.1507734412184674,-0.9008598228243877,0.0
-0.15024393146120896,-0.9021625846795206,0.0
-0.15081112168808503,-0.9018368942157373,0.0
-0.15068023163572902,-0.9006969775924961,0.0
-0.15187807393304775,-0.901804325169359,0.0
-0.15389497064889734,-0.9013809275664408,0.0
-0.1542658257972394,-0.9048658155289213,0.0
-0.15340115817864508,-0.9033025013027619,0.0
-0.1543630017452007,-0.9052892131318395,0.0
-0.15278637156909408,-0.9050937988535696,0.0
-0.15236593685546565,-0.9052566440854611,0.0
-0.15196136760272885,-0.9055171964564878,0.0
-0.14923647469458987,-0.9054846274101094,0.0
-0.14904410598127876,-0.9058754559666493,0.0
-0.1469677137870855,-0.9062011464304325,0.0
-0.14507972394098048,-0.9061360083376758,0.0
-0.14504006028875138,-0.9069828035435122,0.0
-0.14382436934792955,-0.9061685773840542,0.0
-0.14321354910360146,-0.9068525273579989,0.0
-0.14242820878946533,-0.9068525273579989,0.0
-0.14233698238933842,-0.9066571130797291,0.0
-0.14314413771220055,-0.9073736321000521,0.0
-0.14477629700142788,-0.9073736321000521,0.0
-0.14577978740282405,-0.9093929129755081,0.0
-0.14746350943994924,-0.9067873892652423,0.0
-0.1481239092495637,-0.9063314226159458,0.0
-0.14847889893701413,-0.9054846274101094,0.0
-0.14737426622243377,-0.9071456487754038,0.0
-0.14902625733777566,-0.9024231370505471,0.0
-0.1496707916864985,-0.9024882751433038,0.0
-0.15203276217674122,-0.9023579989577906,0.0
-0.15156671426304935,-0.9034653465346535,0.0
-0.15437886720609234,-0.900794684731631,0.0
-0.15541805489449467,-0.9031396560708702,0.0
-0.15557670950341107,-0.9046378322042731,0.0
-0.1572802633666508,-0.9016089108910891,0.0
-0.15654053625257813,-0.9029442417926004,0.0
-0.157359590671109,-0.90372589890568,0.0
-0.15694312232270347,-0.9028791036998437,0.0
-0.15634221799143266,-0.9039538822303282,0.0
-0.1562351261304141,-0.9026836894215737,0.0
-0.15555886085990797,-0.9054194893173528,0.0
-0.1541389021101063,-0.9059080250130276,0.0
-0.15311756306520705,-0.9056800416883793,0.0
-0.15411113755354594,-0.9064616988014591,0.0
-0.15251070918610185,-0.9064616988014591,0.0
-0.15042043471362843,-0.9084809796769151,0.0
-0.14902625733777566,-0.908676393955185,0.0
-0.14746549262256067,-0.90857868681605,0.0
-0.14558146914167858,-0.9074713392391871,0.0
-0.14441535776614312,-0.9109236581552892,0.0
-0.14468308741868952,-0.9092952058363731,0.0
-0.14519474853244488,-0.9083832725377801,0.0
-0.14383230207837538,-0.907764460656592,0.0
-0.1420871013802951,-0.9080250130276185,0.0
-0.14087735998730763,-0.9061360083376758,0.0
-0.14042321116928447,-0.9070805106826472,0.0
-0.14093883864826273,-0.9068199583116207,0.0
-0.13908456290655244,-0.9062988535695675,0.0
-0.1406949071870538,-0.9049635226680562,0.0
-0.14209503411074093,-0.9041167274622199,0.0
-0.1417975567190227,-0.9045075560187598,0.0
-0.14534150404569252,-0.9029442417926004,0.0
-0.14597413929874664,-0.9017066180302241,0.0
-0.14724734253530064,-0.9018694632621157,0.0
-0.1494328097731239,-0.900892391870766,0.0
-0.1503173092178328,-0.9005667014069828,0.0
-0.1505235602094241,-0.9007295466388744,0.0
-0.15253847374266222,-0.9035956227201668,0.0
-0.15145367285419642,-0.9038561750911933,0.0
-0.15201887989846105,-0.9016089108910891,0.0
-0.15358162779628748,-0.9023254299114122,0.0
-0.1532643185784547,-0.9022277227722773,0.0
-0.15317110899571632,-0.9026511203751955,0.0
-0.15288354751705538,-0.902911672746222,0.0
-0.1524472473425353,-0.9043447107868682,0.0
-0.15305211803902904,-0.9032699322563835,0.0
-0.15105306996668252,-0.9045726941115164,0.0
-0.1481853879105188,-0.9073410630536738,0.0
-0.1476360463271458,-0.9068525273579989,0.0
-0.14620220529906394,-0.9074713392391871,0.0
-0.14606933206409647,-0.9062662845231891,0.0
-0.14450261780104712,-0.9059731631057842,0.0
-0.14431818181818182,-0.90857868681605,0.0
-0.14370141202601935,-0.9078621677957269,0.0
-0.14321949865143582,-0.907569046378322,0.0
-0.14288434079009996,-0.9072759249609171,0.0
-0.1429180548944947,-0.907569046378322,0.0
-0.14299143265111852,-0.9075039082855654,0.0
-0.14358242106933206,-0.9064942678478374,0.0
-0.14419125813104872,-0.9077970297029703,0.0
-0.14497461526257338,-0.9054520583637311,0.0
-0.14668015230842457,-0.9064616988014591,0.0
-0.14705695700460097,-0.9070805106826472,0.0
-0.1463965571949865,-0.9037910369984367,0.0
-0.14898262732032366,-0.9043447107868682,0.0
-0.14929398699032206,-0.9031722251172486,0.0
-0.14973425353006506,-0.9022928608650339,0.0
-0.15121172457559892,-0.9013483585200626,0.0
-0.15239965095986038,-0.9023905680041688,0.0
-0.15238378549896875,-0.9023579989577906,0.0
-0.15320482310011105,-0.8994267847837415,0.0
-0.1525087260034904,-0.9010878061490359,0.0
-0.1539227352054577,-0.9023905680041688,0.0
-0.15305211803902904,-0.9025208441896821,0.0
-0.15285379977788355,-0.9023579989577906,0.0
-0.1526316833254006,-0.901804325169359,0.0
-0.1502379819133746,-0.900175872850443,0.0
-0.15033119149611296,-0.9027488275143304,0.0
-0.1475349040139616,-0.9032373632100053,0.0
-0.1468487228303982,-0.9036933298593017,0.0
-0.14603760114231318,-0.9025859822824388,0.0
-0.14462557512295732,-0.90392131318395,0.0
-0.14180747263207996,-0.905549765502866,0.0
-0.14270783753768046,-0.9056474726420011,0.0
-0.14023084245597334,-0.9066245440333507,0.0
-0.13878113596699984,-0.9078295987493487,0.0
-0.137543630017452,-0.9068199583116207,0.0
-0.13684951610344281,-0.9047029702970297,0.0
-0.1372759003649056,-0.9058103178738927,0.0
-0.13787482151356498,-0.9064616988014591,0.0
-0.13688124702522608,-0.903823606044815,0.0
-0.13737109313025544,-0.903009379885357,0.0
-0.1375257813739489,-0.9033025013027619,0.0
-0.1400265746469935,-0.9038887441375717,0.0
-0.1407425035697287,-0.9021300156331422,0.0
-0.1419899254323338,-0.902716258467952,0.0
-0.14225170553704586,-0.9019346013548724,0.0
-0.14422298905283198,-0.9025859822824388,0.0
-0.1467356814215453,-0.9024557060969255,0.0
-0.14943875932095826,-0.9025208441896821,0.0
-0.1503688719657306,-0.9032699322563835,0.0
-0.1544720767888307,-0.9049635226680562,0.0
-0.1548330160241155,-0.9032699322563835,0.0
-0.15346858638743455,-0.9037584679520584,0.0
-0.1552018879898461,-0.9031396560708702,0.0
-0.15414881802316358,-0.9033350703491402,0.0
-0.15380771061399334,-0.9022602918186555,0.0
-0.15274472473425352,-0.9036607608129233,0.0
-0.15425194351895924,-0.9044424179260031,0.0
-0.15218745042043472,-0.9028791036998437,0.0
-0.14966484213866413,-0.9043772798332465,0.0
-0.14849079803268284,-0.9025534132360604,0.0
-0.14809416151039187,-0.9038561750911933,0.0
-0.14764794542281454,-0.9023254299114122,0.0
-0.14494685070601301,-0.9028791036998437,0.0
-0.14469300333174678,-0.9029442417926004,0.0
-0.14266817388545136,-0.90372589890568,0.0
-0.14204545454545456,-0.9049635226680562,0.0
-0.14146239885768683,-0.9045401250651381,0.0
-0.14171227986673013,-0.90372589890568,0.0
-0.13991948278597494,-0.9039538822303282,0.0
-0.14034785023004917,-0.9030419489317353,0.0
-0.1390369665238775,-0.9040190203230849,0.0
-0.14031413612565444,-0.9074062011464304,0.0
-0.1416745993971125,-0.9056474726420011,0.0
-0.14306084404251942,-0.9066245440333507,0.0
-0.14428050134856418,-0.9053217821782178,0.0
-0.14485760748849755,-0.9063965607087024,0.0
-0.14655719498651437,-0.9070479416362689,0.0
-0.14762018086625417,-0.9053217821782178,0.0
-0.1486078058067587,-0.904833246482543,0.0
-0.15109669998413455,-0.9042795726941115,0.0
-0.1513188164366175,-0.902813965607087,0.0
-0.15291131207361575,-0.9048983845752996,0.0
-0.15443637950182454,-0.9043121417404898,0.0
-0.1538136601618277,-0.9038561750911933,0.0
-0.15395049976201808,-0.9042144346013549,0.0
-0.1538215928922735,-0.9039864512767066,0.0
-0.15309773123909248,-0.9047029702970297,0.0
-0.15273084245597335,-0.9008272537780094,0.0
-0.15283595113438045,-0.902813965607087,0.0
-0.15124940504521656,-0.9033025013027619,0.0
-0.15190385530699665,-0.9024882751433038,0.0
-0.15050769474853246,-0.9026511203751955,0.0
-0.15058702205299063,-0.9032373632100053,0.0
-0.15060487069649373,-0.9022277227722773,0.0
-0.14941892749484373,-0.9044424179260031,0.0
-0.14890726638108837,-0.9046378322042731,0.0
-0.14758844994447087,-0.9064942678478374,0.0
-0.14623988576868158,-0.9052566440854611,0.0
-0.14591067745518008,-0.9061034392912976,0.0
-0.14392749484372522,-0.906559405940594,0.0
-0.14330675868633982,-0.9058754559666493,0.0
-0.143146120894812,-0.9046052631578947,0.0
-0.14334047279073456,-0.9063965607087024,0.0
-0.14351697604315405,-0.9061685773840542,0.0
-0.1422457559892115,-0.9068199583116207,0.0
-0.1421227986673013,-0.9062011464304325,0.0
-0.14409606536569888,-0.9063639916623242,0.0
-0.14430628272251309,-0.905940594059406,0.0
-0.14471481834047278,-0.9070479416362689,0.0
-0.14558543550690148,-0.905745179781136,0.0
-0.14606139933365064,-0.9035304846274101,0.0
-0.14601578613358718,-0.9053869202709744,0.0
-0.148792241789624,-0.9044424179260031,0.0
-0.15005552911312073,-0.9045726941115164,0.0
-0.14998810090433126,-0.9046052631578947,0.0
-0.15137434554973822,-0.9026511203751955,0.0
-0.1534130572743138,-0.9034002084418968,0.0
-0.15166785657623355,-0.9034653465346535,0.0
-0.15303030303030302,-0.9016089108910891,0.0
-0.15416666666666667,-0.90392131318395,0.0
-0.15393463430112644,-0.9037584679520584,0.0
-0.15512454386799937,-0.9020323084940073,0.0
-0.1544859590671109,-0.9032047941636269,0.0
-0.15429557353641124,-0.9005341323606045,0.0
-0.15255433920355385,-0.9035304846274101,0.0
-0.15102332222751072,-0.9031070870244919,0.0
-0.15219339996826908,-0.9034327774882751,0.0
-0.14958154846898303,-0.9046704012506513,0.0
-0.15017253688719656,-0.9029442417926004,0.0
-0.14719577978740284,-0.9045726941115164,0.0
-0.14675154688243694,-0.904735539343408,0.0
-0.1451273203236554,-0.9055823345492444,0.0
-0.14429636680945582,-0.9052892131318395,0.0
-0.14258488021577026,-0.905745179781136,0.0
-0.14180350626685706,-0.9060383011985409,0.0
-0.14062747897826433,-0.9073736321000521,0.0
-0.13990956687291767,-0.9067222511724856,0.0
-0.14117880374424877,-0.9062988535695675,0.0
-0.13929478026336664,-0.9041167274622199,0.0
-0.14042321116928447,-0.9039538822303282,0.0
-0.13933841028081867,-0.9031070870244919,0.0
-0.14078811676979217,-0.9032047941636269,0.0
-0.1410935268919562,-0.9029768108389786,0.0
-0.14253728383309536,-0.9029442417926004,0.0
-0.14361415199111535,-0.9022928608650339,0.0
-0.14228145327621766,-0.9034327774882751,0.0
-0.14425471997461525,-0.902813965607087,0.0
-0.14737426622243377,-0.9025534132360604,0.0
-0.14615262573377757,-0.9027813965607087,0.0
-0.14842931937172774,-0.9022928608650339,0.0
-0.14945660796446136,-0.9019346013548724,0.0
-0.14888148500713946,-0.9003712871287128,0.0
-0.1492265587815326,-0.8988079729025534,0.0
-0.1488100904331271,-0.8990033871808234,0.0
-0.14939116293828336,-0.8984822824387702,0.0
-0.1493812470252261,-0.9013483585200626,0.0
-0.1492186260510868,-0.9009249609171444,0.0
-0.14914128192924003,-0.900892391870766,0.0
-0.14803466603204823,-0.9027813965607087,0.0
-0.14788791051880057,-0.9004038561750912,0.0
-0.14730088846580994,-0.9004364252214695,0.0
-0.14696176423925114,-0.902911672746222,0.0
-0.1451312866888783,-0.9035304846274101,0.0
-0.14345549738219895,-0.9028791036998437,0.0
-0.1430628272251309,-0.9047029702970297,0.0
-0.1433226241472315,-0.902813965607087,0.0
-0.14138505473584007,-0.9034002084418968,0.0
-0.14144256703157226,-0.9026185513288171,0.0
-0.14045494209106774,-0.9034653465346535,0.0
-0.13924123433285737,-0.9046052631578947,0.0
-0.1387335395843249,-0.9044098488796248,0.0
-0.13922933523718864,-0.9039864512767066,0.0
-0.13874543867999364,-0.9045075560187598,0.0
-0.13928883071553227,-0.9043772798332465,0.0
-0.1393840234808821,-0.9033676393955185,0.0
-0.14030620339520863,-0.9017391870766024,0.0
-0.1416309693796605,-0.9032373632100053,0.0
-0.14237069649373316,-0.9038561750911933,0.0
-0.14399690623512612,-0.9024882751433038,0.0
-0.14658892590829764,-0.9042470036477332,0.0
-0.1490163414247184,-0.901999739447629,0.0
-0.14893106457242583,-0.9018694632621157,0.0
-0.15023599873076313,-0.9013483585200626,0.0
-0.1508706171664287,-0.8991010943199583,0.0
-0.15181659527209265,-0.9021625846795206,0.0
-0.1509182135491036,-0.902911672746222,0.0
-0.1503430905917817,-0.9005992704533611,0.0
-0.14882992225924163,-0.8989056800416884,0.0
-0.14896477867682056,-0.8996221990620115,0.0
-0.1471481834047279,-0.8993616466909848,0.0
-0.1461070125337141,-0.9003387180823346,0.0
-0.146132793907663,-0.9005015633142261,0.0
-0.14643027129938124,-0.900892391870766,0.0
-0.1443717277486911,-0.9010226680562793,0.0
-0.14521854672378232,-0.9000130276185513,0.0
-0.14215849595430746,-0.9018694632621157,0.0
-0.1417578930667936,-0.9005992704533611,0.0
-0.14085157861335873,-0.901902032308494,0.0
-0.14016341424718387,-0.9007621156852528,0.0
-0.13798389655719498,-0.9018694632621157,0.0
-0.1382198952879581,-0.9042470036477332,0.0
-0.1399432809773124,-0.9021625846795206,0.0
-0.13878510233222274,-0.9039538822303282,0.0
-0.13821394574012374,-0.9050286607608129,0.0
-0.1389318578454704,-0.9046704012506513,0.0
-0.13977669363795017,-0.9050612298071913,0.0
-0.1405620339520863,-0.9062337154768109,0.0
-0.14214263049341583,-0.905549765502866,0.0
-0.14438957639219419,-0.9051915059927045,0.0
-0.1461903062033952,-0.9059080250130276,0.0
-0.1488537204505791,-0.9047029702970297,0.0
-0.14928208789465333,-0.9051263678999479,0.0
-0.15214580358559415,-0.9065919749869724,0.0
-0.15321473901316834,-0.9043447107868682,0.0
-0.15339322544819928,-0.9045401250651381,0.0
-0.15441853085832144,-0.9065268368942158,0.0
-0.15595946374742187,-0.9046378322042731,0.0
-0.1555925749643027,-0.9036933298593017,0.0
-0.15588410280818657,-0.9034653465346535,0.0
-0.1547973187371093,-0.903009379885357,0.0
-0.15535260986831667,-0.9031070870244919,0.0
-0.15580279232111693,-0.9026511203751955,0.0
-0.1549520069808028,-0.9048006774361647,0.0
-0.15442051404093288,-0.9043121417404898,0.0
-0.1539009201967317,-0.9043447107868682,0.0
-0.15117007774075836,-0.9033676393955185,0.0
-0.1504481992701888,-0.9031070870244919,0.0
-0.1492662224337617,-0.9014786347055758,0.0
-0.14837973980644137,-0.9026511203751955,0.0
-0.14573020783753768,-0.9048658155289213,0.0
-0.14590274472473425,-0.9036607608129233,0.0
-0.14339600190385532,-0.9042470036477332,0.0
-0.14232111692844676,-0.9040190203230849,0.0
-0.1404747739171823,-0.9045726941115164,0.0
-0.14219815960653656,-0.9056800416883793,0.0
-0.1396041567507536,-0.9045726941115164,0.0
-0.14032603522132317,-0.9063639916623242,0.0
-0.1398639536728542,-0.9052892131318395,0.0
-0.14002260828177057,-0.9055171964564878,0.0
-0.14061756306520704,-0.9065919749869724,0.0
-0.14158337299698556,-0.9065268368942158,0.0
-0.1432294145644931,-0.905940594059406,0.0
-0.14384420117404412,-0.9066245440333507,0.0
-0.1448635570363319,-0.9048006774361647,0.0
-0.14439552594002855,-0.9039538822303282,0.0
-0.14581945105505315,-0.9048658155289213,0.0
-0.1468487228303982,-0.9032373632100053,0.0
-0.14871093130255433,-0.9034327774882751,0.0
-0.1495736157385372,-0.9027813965607087,0.0
-0.15214382040298272,-0.9029768108389786,0.0
-0.15164207520228462,-0.9018694632621157,0.0
-0.15084681897509122,-0.9028791036998437,0.0
-0.15209820720291925,-0.9024882751433038,0.0
-0.15202681262890688,-0.9005992704533611,0.0
-0.15169958749801682,-0.9021300156331422,0.0
-0.15174520069808028,-0.9012832204273059,0.0
-0.1504700142789148,-0.9032047941636269,0.0
-0.14874067904172616,-0.903009379885357,0.0
-0.14768364270982073,-0.9004689942678479,0.0
-0.14746549262256067,-0.9028465346534653,0.0
-0.14751903855306997,-0.9031070870244919,0.0
-0.14730485483103284,-0.9053543512245962,0.0
-0.14385015072187848,-0.9033350703491402,0.0
-0.14327899412977946,-0.9041818655549766,0.0
-0.1414405838489608,-0.9032699322563835,0.0
-0.14092495636998253,-0.9037910369984367,0.0
-0.13945343487228304,-0.9040515893694633,0.0
-0.13908257972394097,-0.906754820218864,0.0
-0.14007615421227987,-0.9062011464304325,0.0
-0.13830517214025068,-0.9068525273579989,0.0
-0.13895168967158497,-0.9072759249609171,0.0
-0.13853323814056798,-0.9074387701928087,0.0
-0.13863834681897508,-0.9059731631057842,0.0
-0.13973108043788673,-0.9052566440854611,0.0
-0.13854712041884817,-0.9043772798332465,0.0
-0.13961407266381087,-0.9029768108389786,0.0
-0.14038354751705537,-0.9028791036998437,0.0
-0.13896953831508804,-0.9023905680041688,0.0
-0.13831508805330794,-0.9033676393955185,0.0
-0.13996707916864984,-0.901902032308494,0.0
-0.1419641440583849,-0.9016089108910891,0.0
-0.14420315722671745,-0.9023254299114122,0.0
-0.14648778359511344,-0.9012832204273059,0.0
-0.14683285736950658,-0.900990099009901,0.0
-0.14743971124861177,-0.9002735799895779,0.0
-0.14877240996350943,-0.8988731109953101,0.0
-0.14728303982230684,-0.8976680562793121,0.0
-0.147759003649056,-0.8999478895257946,0.0
-0.14831627796287483,-0.898775403856175,0.0
-0.14758250039663653,-0.8964304325169359,0.0
-0.1461070125337141,-0.8991336633663366,0.0
-0.14528002538473742,-0.895323084940073,0.0
-0.14360621926066952,-0.8982217300677436,0.0
-0.14261264477233063,-0.8976354872329338,0.0
-0.1427514675551325,-0.9004038561750912,0.0
-0.1430628272251309,-0.8977331943720688,0.0
-0.14008012057750277,-0.8988079729025534,0.0
-0.13895962240203077,-0.8991010943199583,0.0
-0.13796803109630335,-0.9016740489838457,0.0
-0.13592931937172775,-0.899785044293903,0.0
-0.1352114072663811,-0.9007621156852528,0.0
-0.13656790417261622,-0.9018694632621157,0.0
-0.1349654926225607,-0.9019671704012506,0.0
-0.13541964144058385,-0.9020323084940073,0.0
-0.13475527526574646,-0.9030419489317353,0.0
-0.13600071394574012,-0.9023579989577906,0.0
-0.13730168173885451,-0.9032699322563835,0.0
-0.13801166111375535,-0.9048983845752996,0.0
-0.14075241948278597,-0.9028465346534653,0.0
-0.14137712200539426,-0.9040190203230849,0.0
-0.14209900047596383,-0.9020648775403857,0.0
-0.1439413771220054,-0.9051589369463262,0.0
-0.1419641440583849,-0.9016089108910891,26.0
-0.14420315722671745,-0.9023254299114122,26.0
-0.14648778359511344,-0.9012832204273059,26.0
-0.14683285736950658,-0.900990099009901,26.0
-0.14743971124861177,-0.9002735799895779,26.0
-0.14877240996350943,-0.8988731109953101,26.0
-0.14728303982230684,-0.8976680562793121,26.0
-0.147759003649056,-0.8999478895257946,26.0
-0.14831627796287483,-0.898775403856175,26.0
-0.14758250039663653,-0.8964304325169359,26.0
-0.1461070125337141,-0.8991336633663366,26.0
-0.14528002538473742,-0.895323084940073,26.0
-0.14360621926066952,-0.8982217300677436,26.0
-0.14261264477233063,-0.8976354872329338,26.0
-0.1427514675551325,-0.9004038561750912,26.0
-0.1430628272251309,-0.8977331943720688,26.0
-0.14008012057750277,-0.8988079729025534,26.0
-0.13895962240203077,-0.8991010943199583,26.0
-0.13796803109630335,-0.9016740489838457,26.0
-0.13592931937172775,-0.899785044293903,26.0
-0.1352114072663811,-0.9007621156852528,26.0
-0.13656790417261622,-0.9018694632621157,26.0
-0.1349654926225607,-0.9019671704012506,26.0
-0.13541964144058385,-0.9020323084940073,26.0
-0.13475527526574646,-0.9030419489317353,26.0
-0.13600071394574012,-0.9023579989577906,26.0
-0.13730168173885451,-0.9032699322563835,26.0
-0.13801166111375535,-0.9048983845752996,26.0
-0.14075241948278597,-0.9028465346534653,26.0
-0.14137712200539426,-0.9040190203230849,26.0
-0.14209900047596383,-0.9020648775403857,26.0
-0.1439413771220054,-0.9051589369463262,26.0
-0.1419641440583849,-0.9016089108910891,28.5
-0.14420315722671745,-0.9023254299114122,28.5
-0.14648778359511344,-0.9012832204273059,28.5
-0.14683285736950658,-0.900990099009901,28.5
-0.14743971124861177,-0.9002735799895779,28.5
-0.14877240996350943,-0.8988731109953101,28.5
-0.14728303982230684,-0.8976680562793121,28.5
-0.147759003649056,-0.8999478895257946,28.5
-0.14831627796287483,-0.898775403856175,28.5
-0.14758250039663653,-0.8964304325169359,28.5
-0.1461070125337141,-0.8991336633663366,28.5
-0.14528002538473742,-0.895323084940073,28.5
-0.14360621926066952,-0.8982217300677436,28.5
-0.14261264477233063,-0.8976354872329338,28.5
-0.1427514675551325,-0.9004038561750912,28.5
-0.1430628272251309,-0.8977331943720688,28.5
-0.14008012057750277,-0.8988079729025534,28.5
-0.13895962240203077,-0.8991010943199583,28.5
-0.13796803109630335,-0.9016740489838457,28.5
-0.13592931937172775,-0.899785044293903,28.5
-0.1352114072663811,-0.9007621156852528,28.5
-0.13656790417261622,-0.9018694632621157,28.5
-0.1349654926225607,-0.9019671704012506,28.5
-0.13541964144058385,-0.9020323084940073,28.5
-0.13475527526574646,-0.9030419489317353,28.5
-0.13600071394574012,-0.9023579989577906,28.5
-0.13730168173885451,-0.9032699322563835,28.5
-0.13801166111375535,-0.9048983845752996,28.5
-0.14075241948278597,-0.9028465346534653,28.5
-0.14137712200539426,-0.9040190203230849,28.5
-0.14209900047596383,-0.9020648775403857,28.5
-0.1439413771220054,-0.9051589369463262,28.5
-0.1419641440583849,-0.9016089108910891,31.0
-0.14420315722671745,-0.9023254299114122,31.0
-0.14648778359511344,-0.9012832204273059,31.0
-0.14683285736950658,-0.900990099009901,31.0
-0.14743971124861177,-0.9002735799895779,31.0
-0.14877240996350943,-0.8988731109953101,31.0
-0.14728303982230684,-0.8976680562793121,31.0
-0.147759003649056,-0.8999478895257946,31.0
-0.14831627796287483,-0.898775403856175,31.0
-0.14758250039663653,-0.8964304325169359,31.0
-0.1461070125337141,-0.8991336633663366,31.0
-0.14528002538473742,-0.895323084940073,31.0
-0.14360621926066952,-0.8982217300677436,31.0
-0.14261264477233063,-0.8976354872329338,31.0
-0.1427514675551325,-0.9004038561750912,31.0
-0.1430628272251309,-0.8977331943720688,31.0
-0.14008012057750277,-0.8988079729025534,31.0
-0.13895962240203077,-0.8991010943199583,31.0
-0.13796803109630335,-0.9016740489838457,31.0
-0.13592931937172775,-0.899785044293903,31.0
-0.1352114072663811,-0.9007621156852528,31.0
-0.13656790417261622,-0.9018694632621157,31.0
-0.1349654926225607,-0.9019671704012506,31.0
-0.13541964144058385,-0.9020323084940073,31.0
-0.13475527526574646,-0.9030419489317353,31.0
-0.13600071394574012,-0.9023579989577906,31.0
-0.13730168173885451,-0.9032699322563835,31.0
-0.13801166111375535,-0.9048983845752996,31.0
-0.14075241948278597,-0.9028465346534653,31.0
-0.14137712200539426,-0.9040190203230849,31.0
-0.14209900047596383,-0.9020648775403857,31.0
-0.1439413771220054,-0.9051589369463262,31.0
-0.1419641440583849,-0.9016089108910891,32.0
-0.14420315722671745,-0.9023254299114122,32.0
-0.14648778359511344,-0.9012832204273059,32.0
-0.14683285736950658,-0.900990099009901,32.0
-0.14743971124861177,-0.9002735799895779,32.0
-0.14877240996350943,-0.8988731109953101,32.0
-0.14728303982230684,-0.8976680562793121,32.0
-0.147759003649056,-0.8999478895257946,32.0
-0.14831627796287483,-0.898775403856175,32.0
-0.14758250039663653,-0.8964304325169359,32.0
-0.1461070125337141,-0.8991336633663366,32.0
-0.14528002538473742,-0.895323084940073,32.0
-0.14360621926066952,-0.8982217300677436,32.0
-0.14261264477233063,-0.8976354872329338,32.0
-0.1427514675551325,-0.9004038561750912,32.0
-0.1430628272251309,-0.8977331943720688,32.0
-0.14008012057750277,-0.8988079729025534,32.0
-0.13895962240203077,-0.8991010943199583,32.0
-0.13796803109630335,-0.9016740489838457,32.0
-0.13592931937172775,-0.899785044293903,32.0
-0.1352114072663811,-0.9007621156852528,32.0
-0.13656790417261622,-0.9018694632621157,32.0
-0.1349654926225607,-0.9019671704012506,32.0
-0.13541964144058385,-0.9020323084940073,32.0
-0.13475527526574646,-0.9030419489317353,32.0
-0.13600071394574012,-0.9023579989577906,32.0
-0.13730168173885451,-0.9032699322563835,32.0
-0.13801166111375535,-0.9048983845752996,32.0
-0.14075241948278597,-0.9028465346534653,32.0
-0.14137712200539426,-0.9040190203230849,32.0
-0.14209900047596383,-0.9020648775403857,32.0
-0.1439413771220054,-0.9051589369463262,32.0
-0.1468269078216722,-0.9055171964564878,32.0
-0.14786212914485167,-0.9044749869723815,32.0
-0.1497362367126765,-0.9033025013027619,32.0
-0.1510193558622878,-0.9035630536737884,32.0
-0.15390290337934318,-0.9045726941115164,32.0
-0.15492225924163097,-0.9044424179260031,32.0
-0.15429359035379978,-0.9036281917665451,32.0
-0.1537779628748215,-0.9030419489317353,32.0
-0.1541389021101063,-0.9026185513288171,32.0
-0.15196335078534032,-0.9011203751954143,32.0
-0.15061478660955102,-0.9030419489317353,32.0
-0.1499385213390449,-0.901804325169359,32.0
-0.14966285895605266,-0.9023579989577906,32.0
-0.1473901316833254,-0.9020974465867639,32.0
-0.14581548468983024,-0.8996221990620115,32.0
-0.14450261780104712,-0.8994593538301199,32.0
-0.14236078058067586,-0.8994267847837415,32.0
-0.1403081865778201,-0.9012180823345493,32.0
-0.13780144375694114,-0.8995570609692548,32.0
-0.13643304775503728,-0.9021951537258989,32.0
-0.13556044740599715,-0.9027813965607087,32.0
-0.13385887672536886,-0.9015437727983324,32.0
-0.13261145486276377,-0.9012180823345493,32.0
-0.13234967475805173,-0.90392131318395,32.0
-0.13212755830556877,-0.9025208441896821,32.0
-0.13283158813263526,-0.9015763418447108,32.0
-0.13275226082817707,-0.9020323084940073,32.0
-0.13289306679359036,-0.9025859822824388,32.0
-0.1343764873869586,-0.9031070870244919,32.0
-0.13542955735364112,-0.9033676393955185,32.0
-0.13646676185943202,-0.9028465346534653,32.0
-0.13938600666349357,-0.902813965607087,32.0
-0.1468269078216722,-0.9055171964564878,33.0
-0.14786212914485167,-0.9044749869723815,33.0
-0.1497362367126765,-0.9033025013027619,33.0
-0.1510193558622878,-0.9035630536737884,33.0
-0.15390290337934318,-0.9045726941115164,33.0
-0.15492225924163097,-0.9044424179260031,33.0
-0.15429359035379978,-0.9036281917665451,33.0
-0.1537779628748215,-0.9030419489317353,33.0
-0.1541389021101063,-0.9026185513288171,33.0
-0.15196335078534032,-0.9011203751954143,33.0
-0.15061478660955102,-0.9030419489317353,33.0
-0.1499385213390449,-0.901804325169359,33.0
-0.14966285895605266,-0.9023579989577906,33.0
-0.1473901316833254,-0.9020974465867639,33.0
-0.14581548468983024,-0.8996221990620115,33.0
-0.14450261780104712,-0.8994593538301199,33.0
-0.14236078058067586,-0.8994267847837415,33.0
-0.1403081865778201,-0.9012180823345493,33.0
-0.13780144375694114,-0.8995570609692548,33.0
-0.13643304775503728,-0.9021951537258989,33.0
-0.13556044740599715,-0.9027813965607087,33.0
-0.13385887672536886,-0.9015437727983324,33.0
-0.13261145486276377,-0.9012180823345493,33.0
-0.13234967475805173,-0.90392131318395,33.0
-0.13212755830556877,-0.9025208441896821,33.0
-0.13283158813263526,-0.9015763418447108,33.0
-0.13275226082817707,-0.9020323084940073,33.0
-0.13289306679359036,-0.9025859822824388,33.0
-0.1343764873869586,-0.9031070870244919,33.0
-0.13542955735364112,-0.9033676393955185,33.0
-0.13646676185943202,-0.9028465346534653,33.0
-0.13938600666349357,-0.902813965607087,33.0
-0.1422140250674282,-0.9025208441896821,33.0
-0.14251150245914643,-0.9047681083897864,33.0
-0.14622798667301284,-0.9003712871287128,33.0
-0.1490599714421704,-0.9032373632100053,33.0
-0.15000991591305726,-0.901999739447629,33.0
-0.15276257337775662,-0.9007295466388744,33.0
-0.15276653974297955,-0.901902032308494,33.0
-0.15259598603839442,-0.9011203751954143,33.0
-0.15315722671743615,-0.9019671704012506,33.0
-0.1533872759003649,-0.9012180823345493,33.0
-0.15405759162303664,-0.9038561750911933,33.0
-0.15592376646041567,-0.9036933298593017,33.0
-0.15562628906869744,-0.904735539343408,33.0
-0.15488457877201334,-0.9041818655549766,33.0
-0.15279628748215135,-0.9059731631057842,33.0
-0.1510292717753451,-0.9051263678999479,33.0
-0.15091623036649215,-0.9042795726941115,33.0
-0.14815365698873553,-0.9033350703491402,33.0
-0.14496866571473901,-0.9034979155810318,33.0
-0.14341980009519276,-0.9039864512767066,33.0
-0.14163295256227193,-0.9036933298593017,33.0
-0.14184911946692053,-0.9047681083897864,33.0
-0.1400444232904966,-0.9050612298071913,33.0
-0.13979057591623037,-0.905940594059406,33.0
-0.13968943360304617,-0.9049635226680562,33.0
-0.1397806600031731,-0.9049960917144346,33.0
-0.13839044899254324,-0.9048658155289213,33.0
-0.13964580358559417,-0.905549765502866,33.0
-0.13707163255592575,-0.90392131318395,33.0
-0.1382198952879581,-0.903823606044815,33.0
-0.1391599238457877,-0.9043447107868682,33.0
-0.14009003649056004,-0.9051915059927045,33.0
-0.14114905600507693,-0.9034002084418968,33.0
-0.14280897985086466,-0.9031396560708702,33.0
-0.14553387275900365,-0.90392131318395,33.0
-0.14624583531651594,-0.9040841584158416,33.0
-0.14880612406790417,-0.9013483585200626,33.0
-0.15002776455656036,-0.8999478895257946,33.0
-0.14992265587815326,-0.9011529442417926,33.0
-0.14944470886879263,-0.8994919228764982,33.0
-0.14972433761700776,-0.8988405419489317,33.0
-0.15057313977471046,-0.8992639395518499,33.0
-0.14934753292083136,-0.8998176133402814,33.0
-0.15047596382674916,-0.9010878061490359,33.0
-0.1491829287640806,-0.9011855132881709,33.0
-0.1488180231635729,-0.9024231370505471,33.0
-0.14892313184198,-0.9011855132881709,33.0
-0.1491690464858004,-0.8992639395518499,33.0
-0.14622005394256704,-0.899785044293903,33.0
-0.14499643027129938,-0.9007295466388744,33.0
-0.14517293352371888,-0.9004689942678479,33.0
-0.14340790099952402,-0.8999153204794164,33.0
-0.1401971283515786,-0.9002410109431996,33.0
-0.13872759003649057,-0.9005992704533611,33.0
-0.1384796922100587,-0.9010552371026577,33.0
-0.13734927812152942,-0.9031722251172486,33.0
-0.13868792638426147,-0.9031396560708702,33.0
-0.13741472314770745,-0.9040190203230849,33.0
-0.13837260034904014,-0.9034327774882751,33.0
-0.13790655243534825,-0.9042795726941115,33.0
-0.1379085356179597,-0.9022928608650339,33.0
-0.1390072187847057,-0.903009379885357,33.0
-0.13972116452482944,-0.902911672746222,33.0
-0.1408000158654609,-0.9031070870244919,33.0
-0.14114905600507693,-0.9034002084418968,34.0
-0.14280897985086466,-0.9031396560708702,34.0
-0.14553387275900365,-0.90392131318395,34.0
-0.14624583531651594,-0.9040841584158416,34.0
-0.14880612406790417,-0.9013483585200626,34.0
-0.15002776455656036,-0.8999478895257946,34.0
-0.14992265587815326,-0.9011529442417926,34.0
-0.14944470886879263,-0.8994919228764982,34.0
-0.14972433761700776,-0.8988405419489317,34.0
-0.15057313977471046,-0.8992639395518499,34.0
-0.14934753292083136,-0.8998176133402814,34.0
-0.15047596382674916,-0.9010878061490359,34.0
-0.1491829287640806,-0.9011855132881709,34.0
-0.1488180231635729,-0.9024231370505471,34.0
-0.14892313184198,-0.9011855132881709,34.0
-0.1491690464858004,-0.8992639395518499,34.0
-0.14622005394256704,-0.899785044293903,34.0
-0.14499643027129938,-0.9007295466388744,34.0
-0.14517293352371888,-0.9004689942678479,34.0
-0.14340790099952402,-0.8999153204794164,34.0
-0.1401971283515786,-0.9002410109431996,34.0
-0.13872759003649057,-0.9005992704533611,34.0
-0.1384796922100587,-0.9010552371026577,34.0
-0.13734927812152942,-0.9031722251172486,34.0
-0.13868792638426147,-0.9031396560708702,34.0
-0.13741472314770745,-0.9040190203230849,34.0
-0.13837260034904014,-0.9034327774882751,34.0
-0.13790655243534825,-0.9042795726941115,34.0
-0.1379085356179597,-0.9022928608650339,34.0
-0.1390072187847057,-0.903009379885357,34.0
-0.13972116452482944,-0.902911672746222,34.0
-0.1408000158654609,-0.9031070870244919,34.0
-0.1426899888941774,-0.904833246482543,34.0
-0.14329684277328256,-0.9026511203751955,34.0
-0.14366968110423609,-0.9023254299114122,34.0
-0.1449646993495161,-0.9024882751433038,34.0
-0.14806441377122007,-0.903823606044815,34.0
-0.1501665873393622,-0.9035630536737884,34.0
-0.15122362367126765,-0.9011203751954143,34.0
-0.15160439473266699,-0.902911672746222,34.0
-0.15235205457718548,-0.9011203751954143,34.0
-0.1510907504363002,-0.900990099009901,34.0
-0.15023401554815166,-0.9016414799374675,34.0
-0.15001189909566873,-0.901902032308494,34.0
-0.15005949547834366,-0.9012832204273059,34.0
-0.15051959384420116,-0.9020648775403857,34.0
-0.1504918292876408,-0.9033350703491402,34.0
-0.14949230525146756,-0.901999739447629,34.0
-0.14778875138822783,-0.9025208441896821,34.0
-0.14697961288275424,-0.9035304846274101,34.0
-0.14393939393939395,-0.9048658155289213,34.0
-0.14281889576392195,-0.903823606044815,34.0
-0.14299936538156433,-0.9043447107868682,34.0
-0.14046684118673647,-0.902911672746222,34.0
-0.1381405679834999,-0.9034002084418968,34.0
-0.1365817864508964,-0.9051263678999479,34.0
-0.13456290655243536,-0.9020974465867639,34.0
-0.13207004600983657,-0.9030419489317353,34.0
-0.1303684753292083,-0.902911672746222,34.0
-0.12839322544819928,-0.9015437727983324,34.0
-0.12824646993495162,-0.9005992704533611,34.0
-0.12820085673488815,-0.900990099009901,34.0
-0.12809971442170395,-0.9003712871287128,34.0
-0.12769911153419006,-0.9002410109431996,34.0
-0.1279708075519594,-0.9017717561229808,34.0
-0.13050134856417578,-0.9023579989577906,34.0
-0.13137791527843884,-0.9034653465346535,34.0
-0.13445383150880533,-0.9036933298593017,34.0
-0.13636561954624782,-0.9044098488796248,34.0
-0.1382734412184674,-0.9033350703491402,34.0
-0.140290337934317,-0.9020974465867639,34.0
-0.14319570046009836,-0.9040190203230849,34.0
-0.14497461526257338,-0.9029768108389786,34.0
-0.14864945264159923,-0.9031070870244919,34.0
-0.14929200380771063,-0.9030745179781136,34.0
-0.1500317309217833,-0.9033350703491402,34.0
-0.15223702998572108,-0.9036933298593017,34.0
-0.15268721243852135,-0.9029442417926004,34.0
-0.15226281135967,-0.9051589369463262,34.0
-0.1541785657623354,-0.9024882751433038,34.0
-0.15290932889100428,-0.9015437727983324,34.0
-0.15276257337775662,-0.9034327774882751,34.0
-0.15106100269712835,-0.9049635226680562,34.0
-0.1491571473901317,-0.9052892131318395,34.0
-0.1488537204505791,-0.9030419489317353,34.0
-0.1487089481199429,-0.9049635226680562,34.0
-0.1450261780104712,-0.9036933298593017,34.0
-0.14301721402506742,-0.904930953621678,34.0
-0.14243217515468826,-0.9062337154768109,34.0
-0.13977867682056164,-0.9074062011464304,34.0
-0.13673052514675552,-0.9055171964564878,34.0
-0.13667697921624622,-0.9057777488275144,34.0
-0.13622481358083452,-0.9062662845231891,34.0
-0.1348722830398223,-0.9061685773840542,34.0
-0.13401356496906236,-0.9070479416362689,34.0
-0.13436855465651276,-0.9045726941115164,34.0
-0.1279708075519594,-0.9017717561229808,35.0
-0.13050134856417578,-0.9023579989577906,35.0
-0.13137791527843884,-0.9034653465346535,35.0
-0.13445383150880533,-0.9036933298593017,35.0
-0.13636561954624782,-0.9044098488796248,35.0
-0.1382734412184674,-0.9033350703491402,35.0
-0.140290337934317,-0.9020974465867639,35.0
-0.14319570046009836,-0.9040190203230849,35.0
-0.14497461526257338,-0.9029768108389786,35.0
-0.14864945264159923,-0.9031070870244919,35.0
-0.14929200380771063,-0.9030745179781136,35.0
-0.1500317309217833,-0.9033350703491402,35.0
-0.15223702998572108,-0.9036933298593017,35.0
-0.15268721243852135,-0.9029442417926004,35.0
-0.15226281135967,-0.9051589369463262,35.0
-0.1541785657623354,-0.9024882751433038,35.0
-0.15290932889100428,-0.9015437727983324,35.0
-0.15276257337775662,-0.9034327774882751,35.0
-0.15106100269712835,-0.9049635226680562,35.0
-0.1491571473901317,-0.9052892131318395,35.0
-0.1488537204505791,-0.9030419489317353,35.0
-0.1487089481199429,-0.9049635226680562,35.0
-0.1450261780104712,-0.9036933298593017,35.0
-0.14301721402506742,-0.904930953621678,35.0
-0.14243217515468826,-0.9062337154768109,35.0
-0.13977867682056164,-0.9074062011464304,35.0
-0.13673052514675552,-0.9055171964564878,35.0
-0.13667697921624622,-0.9057777488275144,35.0
-0.13622481358083452,-0.9062662845231891,35.0
-0.1348722830398223,-0.9061685773840542,35.0
-0.13401356496906236,-0.9070479416362689,35.0
-0.13436855465651276,-0.9045726941115164,35.0
-0.13565167380612406,-0.9049635226680562,35.0
-0.1350745676661907,-0.906559405940594,35.0
-0.13556044740599715,-0.9044424179260031,35.0
-0.1357250515627479,-0.9034653465346535,35.0
-0.13676027288592735,-0.9042144346013549,35.0
-0.137565445026178,-0.9028465346534653,35.0
-0.13981834047279074,-0.9015437727983324,35.0
-0.14102213231794383,-0.9010552371026577,35.0
-0.14363200063461842,-0.9012832204273059,35.0
-0.14533753768046961,-0.9012506513809275,35.0
-0.14752895446612724,-0.9022277227722773,35.0
-0.150021815008726,-0.9016414799374675,35.0
-0.15172338568935428,-0.9003061490359562,35.0
-0.15116809455814692,-0.9002084418968213,35.0
-0.15211208948119942,-0.9003061490359562,35.0
-0.15284586704743772,-0.9018368942157373,35.0
-0.15187014120260195,-0.9005341323606045,35.0
-0.15215373631603998,-0.9015437727983324,35.0
-0.15203077899412978,-0.8995896300156332,35.0
-0.1503292083135015,-0.900175872850443,35.0
-0.1498115976519118,-0.9007295466388744,35.0
-0.1495260193558623,-0.9030419489317353,35.0
-0.14921465968586387,-0.9040515893694633,35.0
-0.14898262732032366,-0.9048983845752996,35.0
-0.14643423766460414,-0.9042795726941115,35.0
-0.14473266698397588,-0.9057777488275144,35.0
-0.1428347612248136,-0.9073410630536738,35.0
-0.14091305727431383,-0.9068850964043773,35.0
-0.1395347453593527,-0.9070153725898906,35.0
-0.14012573377756624,-0.9061034392912976,35.0
-0.13881088370617167,-0.9046704012506513,35.0
-0.1381187529747739,-0.9051915059927045,35.0
-0.1351538949706489,-0.9048006774361647,35.0
-0.1353700618752975,-0.9041167274622199,35.0
-0.1351241472314771,-0.9043772798332465,35.0
-0.13520149135332382,-0.9048983845752996,35.0
-0.13661550055529112,-0.9042470036477332,35.0
-0.13746826907821671,-0.9046052631578947,35.0
-0.1391123274631128,-0.9051263678999479,35.0
-0.13906473108043788,-0.9029768108389786,35.0
-0.1414683484055212,-0.9038887441375717,35.0
-0.1427197366333492,-0.9016414799374675,35.0
-0.14484769157544028,-0.9030419489317353,35.0
-0.14376487386958592,-0.9025208441896821,35.0
-0.14553783912422655,-0.9003387180823346,35.0
-0.1464362208472156,-0.9014786347055758,35.0
-0.14547239409804855,-0.9024557060969255,35.0
-0.14596818975091227,-0.9025859822824388,35.0
-0.1451927653498334,-0.9012832204273059,35.0
-0.14245795652863716,-0.9011203751954143,35.0
-0.1410538632397271,-0.9011203751954143,35.0
-0.139784626368396,-0.9016740489838457,35.0
-0.13926701570680627,-0.9005015633142261,35.0
-0.13764278914802475,-0.9005341323606045,35.0
-0.13819014754878628,-0.9018368942157373,35.0
-0.13853522132317944,-0.900175872850443,35.0
-0.13781730921783278,-0.9011529442417926,35.0
-0.13613160399809615,-0.9022602918186555,35.0
-0.1356814215452959,-0.902813965607087,35.0
-0.1355148342059337,-0.9010878061490359,35.0
-0.1344339996826908,-0.9025859822824388,35.0
-0.13584205933682372,-0.9045075560187598,35.0
-0.13560011105822625,-0.9050286607608129,35.0
-0.13585594161510392,-0.904735539343408,35.0
-0.1351538949706489,-0.9048006774361647,36.0
-0.1353700618752975,-0.9041167274622199,36.0
-0.1351241472314771,-0.9043772798332465,36.0
-0.13520149135332382,-0.9048983845752996,36.0
-0.13661550055529112,-0.9042470036477332,36.0
-0.13746826907821671,-0.9046052631578947,36.0
-0.1391123274631128,-0.9051263678999479,36.0
-0.13906473108043788,-0.9029768108389786,36.0
-0.1414683484055212,-0.9038887441375717,36.0
-0.1427197366333492,-0.9016414799374675,36.0
-0.14484769157544028,-0.9030419489317353,36.0
-0.14376487386958592,-0.9025208441896821,36.0
-0.14553783912422655,-0.9003387180823346,36.0
-0.1464362208472156,-0.9014786347055758,36.0
-0.14547239409804855,-0.9024557060969255,36.0
-0.14596818975091227,-0.9025859822824388,36.0
-0.1451927653498334,-0.9012832204273059,36.0
-0.14245795652863716,-0.9011203751954143,36.0
-0.1410538632397271,-0.9011203751954143,36.0
-0.139784626368396,-0.9016740489838457,36.0
-0.13926701570680627,-0.9005015633142261,36.0
-0.13764278914802475,-0.9005341323606045,36.0
-0.13819014754878628,-0.9018368942157373,36.0
-0.13853522132317944,-0.900175872850443,36.0
-0.13781730921783278,-0.9011529442417926,36.0
-0.13613160399809615,-0.9022602918186555,36.0
-0.1356814215452959,-0.902813965607087,36.0
-0.1355148342059337,-0.9010878061490359,36.0
-0.1344339996826908,-0.9025859822824388,36.0
-0.13584205933682372,-0.9045075560187598,36.0
-0.13560011105822625,-0.9050286607608129,36.0
-0.13585594161510392,-0.904735539343408,36.0
-0.13504680310963033,-0.9024882751433038,36.0
-0.13597493257179122,-0.903009379885357,36.0
-0.13577463112803426,-0.9037584679520584,36.0
-0.13569728700618752,-0.9042795726941115,36.0
-0.13728978264318578,-0.9034653465346535,36.0
-0.13792241789623988,-0.9053217821782178,36.0
-0.13884261462795494,-0.9034002084418968,36.0
-0.1408793431699191,-0.9061685773840542,36.0
-0.1418590353799778,-0.9036933298593017,36.0
-0.14181143899730286,-0.9039864512767066,36.0
-0.1437133111216881,-0.9050612298071913,36.0
-0.1457897033158813,-0.902911672746222,36.0
-0.14609709662065684,-0.9034653465346535,36.0
-0.14860185625892433,-0.9036933298593017,36.0
-0.14912739965095986,-0.9022928608650339,36.0
-0.14988497540853563,-0.9024882751433038,36.0
-0.1508785498968745,-0.903823606044815,36.0
-0.15098762494050452,-0.9034002084418968,36.0
-0.15117206092336982,-0.902911672746222,36.0
-0.15042440107885133,-0.9039864512767066,36.0
-0.1499305886085991,-0.905549765502866,36.0
-0.1505453752181501,-0.9038887441375717,36.0
-0.15084483579247976,-0.904930953621678,36.0
-0.14940901158178646,-0.9056149035956227,36.0
-0.14772925590988417,-0.9058428869202709,36.0
-0.1455973346025702,-0.9045075560187598,36.0
-0.14151396160558463,-0.901999739447629,36.0
-0.14103403141361257,-0.9045075560187598,36.0
-0.13681580199904808,-0.9022277227722773,36.0
-0.13538394415357766,-0.9010878061490359,36.0
-0.13317467872441693,-0.9035956227201668,36.0
-0.13367047437728066,-0.9035630536737884,36.0
-0.13415040456925273,-0.9037910369984367,36.0
-0.133985800412502,-0.9045726941115164,36.0
-0.13378946533396796,-0.9044424179260031,36.0
-0.13378549896874503,-0.9052240750390829,36.0
-0.13461248611772172,-0.9063965607087024,36.0
-0.13504680310963033,-0.9024557060969255,36.0
-0.13560804378867206,-0.9043447107868682,36.0
-0.13836268443598287,-0.9036281917665451,36.0
-0.14014159923845787,-0.9035956227201668,36.0
-0.14088529271775346,-0.90392131318395,36.0
-0.14134737426622243,-0.9036281917665451,36.0
-0.14398897350468032,-0.901804325169359,36.0
-0.1454565286371569,-0.9003712871287128,36.0
-0.14495478343645882,-0.9004364252214695,36.0
-0.144925035697287,-0.9003387180823346,36.0
-0.14511938759320958,-0.8998501823866597,36.0
-0.14620418848167538,-0.899785044293903,36.0
-0.1454128986197049,-0.8984822824387702,36.0
-0.14556758686339838,-0.9000130276185513,36.0
-0.14748532444867524,-0.8991988014590933,36.0
-0.14660677455180074,-0.8994593538301199,36.0
-0.1463092971600825,-0.8995570609692548,36.0
-0.14625773441218468,-0.9010552371026577,36.0
-0.14481001110582262,-0.9000130276185513,36.0
-0.14268205616373156,-0.9013809275664408,36.0
-0.1418768840234809,-0.8997524752475248,36.0
-0.14024472473425353,-0.9028465346534653,36.0
-0.13993733142947803,-0.9005667014069828,36.0
-0.13677217198159605,-0.9017066180302241,36.0
-0.13654212279866731,-0.9025534132360604,36.0
-0.13448952879581152,-0.9031070870244919,36.0
-0.13352966841186736,-0.9026836894215737,36.0
-0.13152070442646357,-0.901999739447629,36.0
-0.13241511978422973,-0.903009379885357,36.0
-0.1322049024274155,-0.9043121417404898,36.0
-0.1325876566714263,-0.9051915059927045,36.0
-0.13289901634142473,-0.9041167274622199,36.0
-0.13369823893384103,-0.9022277227722773,36.0
-0.13516381088370616,-0.9038887441375717,36.0
-0.13444391559574806,-0.9063639916623242,36.0
-0.13628034269395525,-0.903823606044815,36.0
-0.13763882278280185,-0.9024882751433038,36.0
-0.13849555767095034,-0.9026185513288171,36.0
-0.1403379343169919,-0.9014786347055758,36.0
-0.14319371727748692,-0.9017391870766024,36.0
-0.1454783436458829,-0.9034002084418968,36.0
-0.146703950499762,-0.9009575299635226,36.0
-0.1481496906235126,-0.9024557060969255,36.0
-0.15117007774075836,-0.9030419489317353,36.0
-0.15153696652387752,-0.9011203751954143,36.0
-0.15180469617642392,-0.9034327774882751,36.0
-0.1525702046644455,-0.9000781657113079,36.0
-0.15176304934158338,-0.9026185513288171,36.0
-0.15136839600190385,-0.9009575299635226,36.0
-0.15274075836903062,-0.9011529442417926,36.0
-0.15112644772330636,-0.8998501823866597,36.0
-0.14925630652070443,-0.9026511203751955,36.0
-0.14837180707599557,-0.9030745179781136,36.0
-0.1461903062033952,-0.9024557060969255,36.0
-0.1465988418213549,-0.9039864512767066,36.0
-0.14595629065524354,-0.9025859822824388,36.0
-0.14287640805965413,-0.9036281917665451,36.0
-0.1399472473425353,-0.9032047941636269,36.0
-0.1379700142789148,-0.9045075560187598,36.0
-0.13152070442646357,-0.901999739447629,37.0
-0.13241511978422973,-0.903009379885357,37.0
-0.1322049024274155,-0.9043121417404898,37.0
-0.1325876566714263,-0.9051915059927045,37.0
-0.13289901634142473,-0.9041167274622199,37.0
-0.13369823893384103,-0.9022277227722773,37.0
-0.13516381088370616,-0.9038887441375717,37.0
-0.13444391559574806,-0.9063639916623242,37.0
-0.13628034269395525,-0.903823606044815,37.0
-0.13763882278280185,-0.9024882751433038,37.0
-0.13849555767095034,-0.9026185513288171,37.0
-0.1403379343169919,-0.9014786347055758,37.0
-0.14319371727748692,-0.9017391870766024,37.0
-0.1454783436458829,-0.9034002084418968,37.0
-0.146703950499762,-0.9009575299635226,37.0
-0.1481496906235126,-0.9024557060969255,37.0
-0.15117007774075836,-0.9030419489317353,37.0
-0.15153696652387752,-0.9011203751954143,37.0
-0.15180469617642392,-0.9034327774882751,37.0
-0.1525702046644455,-0.9000781657113079,37.0
-0.15176304934158338,-0.9026185513288171,37.0
-0.15136839600190385,-0.9009575299635226,37.0
-0.15274075836903062,-0.9011529442417926,37.0
-0.15112644772330636,-0.8998501823866597,37.0
-0.14925630652070443,-0.9026511203751955,37.0
-0.14837180707599557,-0.9030745179781136,37.0
-0.1461903062033952,-0.9024557060969255,37.0
-0.1465988418213549,-0.9039864512767066,37.0
-0.14595629065524354,-0.9025859822824388,37.0
-0.14287640805965413,-0.9036281917665451,37.0
-0.1399472473425353,-0.9032047941636269,37.0
-0.1379700142789148,-0.9045075560187598,37.0
-0.13717872441694431,-0.9042470036477332,37.0
-0.1343407900999524,-0.9025208441896821,37.0
-0.13159606536569887,-0.9032699322563835,37.0
-0.1308741868951293,-0.9015437727983324,37.0
-0.12838925908297635,-0.9032373632100053,37.0
-0.12860939235284785,-0.9026511203751955,37.0
-0.12995795652863715,-0.9015437727983324,37.0
-0.12901991115341901,-0.9026836894215737,37.0
-0.12939274948437252,-0.9018694632621157,37.0
-0.13098127875614787,-0.9027813965607087,37.0
-0.130798825955894,-0.9034979155810318,37.0
-0.13276614310645724,-0.9031070870244919,37.0
-0.1343328573695066,-0.9031396560708702,37.0
-0.1352332222751071,-0.900990099009901,37.0
-0.13662739965095985,-0.8991336633663366,37.0
-0.13875932095827384,-0.8981240229286086,37.0
-0.1390686974456608,-0.8991336633663366,37.0
-0.14002062509915914,-0.8983845752996352,37.0
-0.14053823576074884,-0.8974726420010423,37.0
-0.1413136601618277,-0.8963978634705576,37.0
-0.1415595748056481,-0.8967886920270974,37.0
-0.14300333174678725,-0.8983845752996352,37.0
-0.1432651118514993,-0.8980914538822303,37.0
-0.14410994764397905,-0.8980588848358521,37.0
-0.14486950658416628,-0.8976029181865555,37.0
-0.14514318578454705,-0.8977006253256905,37.0
-0.14489330477550372,-0.8990685252735799,37.0
-0.1432651118514993,-0.898970818134445,37.0
-0.14424282087894652,-0.8997199062011464,37.0
-0.14529985721085198,-0.9017066180302241,37.0
-0.14353085832143425,-0.9009575299635226,37.0
-0.14286649214659686,-0.9032373632100053,37.0
-0.14132952562271933,-0.9037584679520584,37.0
-0.13926503252419484,-0.9034002084418968,37.0
-0.13801166111375535,-0.9031722251172486,37.0
-0.13681381881643662,-0.9043121417404898,37.0
-0.13742265587815325,-0.9051915059927045,37.0
-0.136357686815802,-0.904735539343408,37.0
-0.13725408535617958,-0.9045075560187598,37.0
-0.13802356020942408,-0.9052240750390829,37.0
-0.13758131048706965,-0.9056474726420011,37.0
-0.13749801681738855,-0.9064291297550807,37.0
-0.13857091861018564,-0.9044098488796248,37.0
-0.13732151356496905,-0.9042470036477332,37.0
-0.14020109471680153,-0.903823606044815,37.0
-0.14097255275265747,-0.9032047941636269,37.0
-0.14213668094558146,-0.9023579989577906,37.0
-0.14387394891321592,-0.9025859822824388,37.0
-0.14490718705378391,-0.8992313705054716,37.0
-0.1467138664128193,-0.9015437727983324,37.0
-0.14651753133428527,-0.9031070870244919,37.0
-0.14893106457242583,-0.9002084418968213,37.0
-0.1480624305886086,-0.9009575299635226,37.0
-0.1478859273361891,-0.9006644085461177,37.0
-0.1480663969538315,-0.8996221990620115,37.0
-0.1492880374424877,-0.9014460656591975,37.0
-0.14856020942408377,-0.9000130276185513,37.0
-0.14811201015389497,-0.9009249609171444,37.0
-0.1482607488497541,-0.9013157894736842,37.0
-0.1468368237347295,-0.9002410109431996,37.0
-0.14550214183722038,-0.900892391870766,37.0
-0.14425471997461525,-0.900794684731631,37.0
-0.14197207678883073,-0.9015763418447108,37.0
-0.140905124543868,-0.8997199062011464,37.0
-0.14132952562271933,-0.9037584679520584,38.0
-0.13926503252419484,-0.9034002084418968,38.0
-0.13801166111375535,-0.9031722251172486,38.0
-0.13681381881643662,-0.9043121417404898,38.0
-0.13742265587815325,-0.9051915059927045,38.0
-0.136357686815802,-0.904735539343408,38.0
-0.13725408535617958,-0.9045075560187598,38.0
-0.13802356020942408,-0.9052240750390829,38.0
-0.13758131048706965,-0.9056474726420011,38.0
-0.13749801681738855,-0.9064291297550807,38.0
-0.13857091861018564,-0.9044098488796248,38.0
-0.13732151356496905,-0.9042470036477332,38.0
-0.14020109471680153,-0.903823606044815,38.0
-0.14097255275265747,-0.9032047941636269,38.0
-0.14213668094558146,-0.9023579989577906,38.0
-0.14387394891321592,-0.9025859822824388,38.0
-0.14490718705378391,-0.8992313705054716,38.0
-0.1467138664128193,-0.9015437727983324,38.0
-0.14651753133428527,-0.9031070870244919,38.0
-0.14893106457242583,-0.9002084418968213,38.0
-0.1480624305886086,-0.9009575299635226,38.0
-0.1478859273361891,-0.9006644085461177,38.0
-0.1480663969538315,-0.8996221990620115,38.0
-0.1492880374424877,-0.9014460656591975,38.0
-0.14856020942408377,-0.9000130276185513,38.0
-0.14811201015389497,-0.9009249609171444,38.0
-0.1482607488497541,-0.9013157894736842,38.0
-0.1468368237347295,-0.9002410109431996,38.0
-0.14550214183722038,-0.900892391870766,38.0
-0.14425471997461525,-0.900794684731631,38.0
-0.14197207678883073,-0.9015763418447108,38.0
-0.140905124543868,-0.8997199062011464,38.0
-0.13822782801840394,-0.8998176133402814,38.0
-0.13650840869427258,-0.9035956227201668,38.0
-0.13436657147390133,-0.902813965607087,38.0
-0.13345629065524353,-0.9015112037519541,38.0
-0.13137196573060447,-0.9015763418447108,38.0
-0.1300650483896557,-0.9013483585200626,38.0
-0.12833174678724418,-0.9024231370505471,38.0
-0.12827423449151198,-0.902716258467952,38.0
-0.12849238457877202,-0.9032047941636269,38.0
-0.12894455021418372,-0.9023254299114122,38.0
-0.13001348564175788,-0.9031722251172486,38.0
-0.13137593209582737,-0.9020323084940073,38.0
-0.13368039029033793,-0.9020323084940073,38.0
-0.13544740599714422,-0.902911672746222,38.0
-0.13720252260828178,-0.9017391870766024,38.0
-0.13812668570521974,-0.9023254299114122,38.0
-0.14033595113438047,-0.900892391870766,38.0
-0.14211089957163256,-0.9014134966128192,38.0
-0.14459582738378549,-0.8972446586763939,38.0
-0.14528399174996035,-0.9003712871287128,38.0
-0.14755076947485324,-0.9007295466388744,38.0
-0.14885173726796763,-0.9004364252214695,38.0
-0.1476142313184198,-0.9000130276185513,38.0
-0.14870696493733143,-0.900892391870766,38.0
-0.15056124067904172,-0.9005992704533611,38.0
-0.15051761066158972,-0.8989056800416884,38.0
-0.15012097413929876,-0.9001433038040646,38.0
-0.15027566238299223,-0.9003387180823346,38.0
-0.14877637632873236,-0.9005015633142261,38.0
-0.14599595430747264,-0.8999478895257946,38.0
-0.1434931778518166,-0.9000130276185513,38.0
-0.14165080120577503,-0.9009249609171444,38.0
-0.14197207678883073,-0.9018368942157373,38.0
-0.13875932095827384,-0.9027813965607087,38.0
-0.1377320323655402,-0.9023254299114122,38.0
-0.13592138664128192,-0.9011529442417926,38.0
-0.13463231794383626,-0.9010552371026577,38.0
-0.13258567348881484,-0.9041492965085982,38.0
-0.132887117245756,-0.9051915059927045,38.0
-0.13216920514040933,-0.9034327774882751,38.0
-0.13237942249722354,-0.9033350703491402,38.0
-0.13066198635570364,-0.9030745179781136,38.0
-0.1302415516420752,-0.9030419489317353,38.0
-0.1308702205299064,-0.9014786347055758,38.0
-0.13222473425353007,-0.9023905680041688,38.0
-0.13235364112327463,-0.9023905680041688,38.0
-0.13349000475963826,-0.9014460656591975,38.0
-0.13577463112803426,-0.9032373632100053,38.0
-0.1375,-0.9003387180823346,38.0
-0.13732944629541488,-0.9026511203751955,38.0
-0.1394018721243852,-0.9020323084940073,38.0
-0.14155362525781373,-0.9019346013548724,38.0
-0.14205537045851183,-0.9004689942678479,38.0
-0.14403062033952085,-0.9010878061490359,38.0
-0.1447802633666508,-0.8998827514330381,38.0
-0.1460098365857528,-0.9014460656591975,38.0
-0.1474377280660003,-0.8997524752475248,38.0
-0.14779668411867364,-0.9017717561229808,38.0
-0.1477014913533238,-0.9012180823345493,38.0
-0.14751110582262414,-0.9015112037519541,38.0
-0.1461724575598921,-0.9032047941636269,38.0
-0.14682492463906077,-0.9009249609171444,38.0
-0.14487545613200065,-0.9000130276185513,38.0
-0.14138108837061716,-0.900175872850443,38.0
-0.14197207678883073,-0.9018368942157373,39.0
-0.13875932095827384,-0.9027813965607087,39.0
-0.1377320323655402,-0.9023254299114122,39.0
-0.13592138664128192,-0.9011529442417926,39.0
-0.13463231794383626,-0.9010552371026577,39.0
-0.13258567348881484,-0.9041492965085982,39.0
-0.132887117245756,-0.9051915059927045,39.0
-0.13216920514040933,-0.9034327774882751,39.0
-0.13237942249722354,-0.9033350703491402,39.0
-0.13066198635570364,-0.9030745179781136,39.0
-0.1302415516420752,-0.9030419489317353,39.0
-0.1308702205299064,-0.9014786347055758,39.0
-0.13222473425353007,-0.9023905680041688,39.0
-0.13235364112327463,-0.9023905680041688,39.0
-0.13349000475963826,-0.9014460656591975,39.0
-0.13577463112803426,-0.9032373632100053,39.0
-0.1375,-0.9003387180823346,39.0
-0.13732944629541488,-0.9026511203751955,39.0
-0.1394018721243852,-0.9020323084940073,39.0
-0.14155362525781373,-0.9019346013548724,39.0
-0.14205537045851183,-0.9004689942678479,39.0
-0.14403062033952085,-0.9010878061490359,39.0
-0.1447802633666508,-0.8998827514330381,39.0
-0.1460098365857528,-0.9014460656591975,39.0
-0.1474377280660003,-0.8997524752475248,39.0
-0.14779668411867364,-0.9017717561229808,39.0
-0.1477014913533238,-0.9012180823345493,39.0
-0.14751110582262414,-0.9015112037519541,39.0
-0.1461724575598921,-0.9032047941636269,39.0
-0.14682492463906077,-0.9009249609171444,39.0
-0.14487545613200065,-0.9000130276185513,39.0
-0.14138108837061716,-0.900175872850443,39.0
-0.1391083610978899,-0.8980263157894737,39.0
-0.13670672695541805,-0.8976354872329338,39.0
-0.13642908138981438,-0.8996221990620115,39.0
-0.13357528161193083,-0.8995244919228765,39.0
-0.13133428526098684,-0.9003712871287128,39.0
-0.13009281294621608,-0.8994267847837415,39.0
-0.126098683166746,-0.9001433038040646,39.0
-0.12735007139457402,-0.8995244919228765,39.0
-0.12747302871648422,-0.9013157894736842,39.0
-0.1274254323338093,-0.9029768108389786,39.0
-0.12823060447405998,-0.9017066180302241,39.0
-0.12747501189909566,-0.9000130276185513,39.0
-0.1275007932730446,-0.8997524752475248,39.0
-0.12897826431857845,-0.9000455966649297,39.0
-0.13190940821830874,-0.9016089108910891,39.0
-0.13512613041408852,-0.9020323084940073,39.0
-0.13658376963350785,-0.9015437727983324,39.0
-0.13728184991273998,-0.9003712871287128,39.0
-0.1384975408535618,-0.9003712871287128,39.0
-0.14216444550214183,-0.9021625846795206,39.0
-0.14368951293035062,-0.9010226680562793,39.0
-0.1459443915595748,-0.9016414799374675,39.0
-0.1462517848643503,-0.8993616466909848,39.0
-0.14960336347770903,-0.9018694632621157,39.0
-0.1501546882436935,-0.9021951537258989,39.0
-0.1493455497382199,-0.9020974465867639,39.0
-0.15008131048706966,-0.9015763418447108,39.0
-0.14923250832936696,-0.9025859822824388,39.0
-0.1473940980485483,-0.9008272537780094,39.0
-0.14860978898937013,-0.9020648775403857,39.0
-0.1475527526574647,-0.9016414799374675,39.0
-0.14422497223544345,-0.9022277227722773,39.0
-0.14400682214818342,-0.8987102657634184,39.0
-0.1420077740758369,-0.9009249609171444,39.0
-0.14083372996985563,-0.9019346013548724,39.0
-0.14183325400602886,-0.9029768108389786,39.0
-0.13853323814056798,-0.9027488275143304,39.0
-0.13698238933841028,-0.9031722251172486,39.0
-0.13473940980485483,-0.903009379885357,39.0
-0.1325261780104712,-0.904735539343408,39.0
-0.1305925749643027,-0.9062988535695675,39.0
-0.1303030303030303,-0.9046378322042731,39.0
-0.13061835633825164,-0.9036607608129233,39.0
-0.12999167063303188,-0.9044098488796248,39.0
-0.12989052831984768,-0.9050286607608129,39.0
-0.13172100587022054,-0.9047681083897864,39.0
-0.13082460732984294,-0.9046052631578947,39.0
-0.13275622719339997,-0.903823606044815,39.0
-0.135215373631604,-0.9031396560708702,39.0
-0.13562985879739806,-0.9039538822303282,39.0
-0.1385054735840076,-0.9032373632100053,39.0
-0.13928089798508647,-0.9039864512767066,39.0
-0.1409884182135491,-0.9010226680562793,39.0
-0.14406631762652705,-0.9005341323606045,39.0
-0.1460851975249881,-0.9006969775924961,39.0
-0.14837775662382993,-0.9017717561229808,39.0
-0.15130295097572585,-0.899785044293903,39.0
-0.15167380612406792,-0.9016414799374675,39.0
-0.15248492781215295,-0.9004689942678479,39.0
-0.15441853085832144,-0.9016414799374675,39.0
-0.15249087735998731,-0.8988405419489317,39.0
-0.1532206885610027,-0.9012832204273059,39.0
-0.151055053149294,-0.9020323084940073,39.0
-0.15016063779152786,-0.9013809275664408,39.0
-0.14937529747739173,-0.9025208441896821,39.0
-0.14727709027447247,-0.9003061490359562,39.0
-0.14525226082817705,-0.9004038561750912,39.0
-0.14323139774710456,-0.8993290776446066,39.0
-0.1418154053625258,-0.9015763418447108,39.0
-0.138751388227828,-0.9001433038040646,39.0
-0.13735522766936378,-0.9030745179781136,39.0
-0.1343011264477233,-0.9017717561229808,39.0
-0.1330755195938442,-0.9015437727983324,39.0
-0.1305053149293987,-0.9015763418447108,39.0
-0.1296089163890211,-0.9035304846274101,39.0
-0.13004521656354118,-0.9021625846795206,39.0
-0.12969022687609075,-0.9036281917665451,39.0
-0.12940464858004125,-0.9049635226680562,39.0
-0.1302098207202919,-0.9011855132881709,39.0
-0.13246668253212757,-0.9015437727983324,39.0
-0.13184594637474217,-0.9024231370505471,39.0
-0.13286133587180707,-0.9025859822824388,39.0
-0.13543749008408695,-0.9029442417926004,39.0
-0.13639338410280819,-0.9008272537780094,39.0
-0.13727193399968268,-0.9010226680562793,39.0
-0.1367047437728066,-0.9005667014069828,39.0
-0.14001467555132477,-0.9002735799895779,39.0
-0.14209503411074093,-0.9001433038040646,39.0
-0.1433880691734095,-0.8991010943199583,39.0
-0.14569649373314295,-0.8991336633663366,39.0
-0.1468447564651753,-0.8984497133923919,39.0
-0.14804656512771697,-0.8970492443981241,39.0
-0.14844716801523083,-0.9011203751954143,39.0
-0.148242900206251,-0.9012180823345493,39.0
-0.1482111692844677,-0.9011855132881709,39.0
-0.14888148500713946,-0.9002410109431996,39.0
-0.14855624305886087,-0.9007295466388744,39.0
-0.1478204823100111,-0.9008598228243877,39.0
-0.14467515468824368,-0.8994593538301199,39.0
-0.14507774075836902,-0.9014460656591975,39.0
-0.14210296684118673,-0.9017066180302241,39.0
-0.14049460574329684,-0.9020323084940073,39.0
-0.13992741551642074,-0.9016089108910891,39.0
-0.13790060288751388,-0.9033676393955185,39.0
-0.13642709820720292,-0.9031396560708702,39.0
-0.13406314453434873,-0.9046704012506513,39.0
-0.1313660161827701,-0.9045075560187598,39.0
-0.13056481040774234,-0.9037910369984367,39.0
-0.12920831350150722,-0.9032047941636269,39.0
-0.12838529271775345,-0.9042795726941115,39.0
-0.12882555925749642,-0.9031070870244919,39.0
-0.12596779311438996,-0.9018694632621157,39.0
-0.12705061082024433,-0.8992313705054716,39.0
-0.12661034428050136,-0.8988079729025534,39.0
-0.127812152943043,-0.9003712871287128,39.0
-0.1312648738695859,-0.9021300156331422,39.0
-0.13252816119308267,-0.9014786347055758,39.0
-0.13459265429160716,-0.9020323084940073,39.0
-0.13512216404886562,-0.8986451276706618,39.0
-0.13786093923528478,-0.8998501823866597,39.0
-0.1387910518800571,-0.8994919228764982,39.0
-0.14199190861494526,-0.9003061490359562,39.0
-0.14167063303188956,-0.8992313705054716,39.0
-0.1439195621132794,-0.8975052110474205,39.0
-0.14333650642551166,-0.8988405419489317,39.0
-0.14350309376487386,-0.8989382490880667,39.0
-0.14516103442805015,-0.8979286086503387,39.0
-0.1462874821513565,-0.8984171443460135,39.0
-0.14669800095192764,-0.8986776967170401,39.0
-0.14649968269078217,-0.9013809275664408,39.0
-0.14556560368078691,-0.9003061490359562,39.0
-0.14523837854989688,-0.900175872850443,39.0
-0.1442487704267809,-0.9011529442417926,39.0
-0.14198000951927653,-0.900175872850443,39.0
-0.1416309693796605,-0.9006969775924961,39.0
-0.14101419958749803,-0.9014460656591975,39.0
-0.13777367920038078,-0.9022602918186555,39.0
-0.1371350943994923,-0.9023254299114122,39.0
-0.1358658575281612,-0.9045401250651381,39.0
-0.13324012375059496,-0.903823606044815,39.0
-0.13266103442805013,-0.9035630536737884,39.0
-0.13090393463430114,-0.9033676393955185,39.0
-0.1296922100587022,-0.9043447107868682,39.0
-0.1293233380929716,-0.9029768108389786,39.0
-0.12960098365857528,-0.9031722251172486,39.0
-0.1294899254323338,-0.9021625846795206,39.0
-0.12885927336189115,-0.899785044293903,39.0
-0.1300392670157068,-0.9018368942157373,39.0
-0.13206806282722514,-0.9012506513809275,39.0
-0.13365460891638903,-0.903009379885357,39.0
-0.13592138664128192,-0.9009575299635226,39.0
-0.1372144217039505,-0.9022602918186555,39.0
-0.1385590195145169,-0.9004364252214695,39.0
-0.14083967951769,-0.8986125586242835,39.0
-0.14156750753609393,-0.8998827514330381,39.0
-0.14252141837220372,-0.8992965085982283,39.0
-0.14602570204664445,-0.8991336633663366,39.0
-0.14575003966365224,-0.8991988014590933,39.0
-0.14632912898619704,-0.8982542991141219,39.0
-0.14478819609709662,-0.8996547681083897,39.0
-0.1440246707916865,-0.8982542991141219,39.0
-0.1433841028081866,-0.8974400729546639,39.0
-0.14349119466920515,-0.8986776967170401,39.0
-0.14347334602570205,-0.9006969775924961,39.0
-0.14159725527526576,-0.9013809275664408,39.0
-0.14210693320640966,-0.9000781657113079,39.0
-0.14110145962240203,-0.8993942157373632,39.0
-0.13814850071394574,-0.9011529442417926,39.0
-0.1384400285578296,-0.900175872850443,39.0
-0.13577066476281135,-0.9014460656591975,39.0
-0.13463430112644773,-0.9019346013548724,39.0
-0.13355743296842773,-0.9010552371026577,39.0
-0.13450737743931462,-0.900990099009901,39.0
-0.13203633190544184,-0.9010878061490359,39.0
-0.13142154529589084,-0.9029442417926004,39.0
-0.1338925908297636,-0.9033350703491402,39.0
-0.13254600983658577,-0.9025859822824388,39.0
-0.13218903696652387,-0.9023579989577906,39.0
-0.1340333967951769,-0.9020323084940073,39.0
-0.13394018721243853,-0.9023905680041688,39.0
-0.1352471045533873,-0.9027488275143304,39.0
-0.13553863239727115,-0.9003712871287128,39.0
-0.1387117245755989,-0.900175872850443,39.0
-0.1395069808027923,-0.9026185513288171,39.0
-0.14103998096144693,-0.9005015633142261,39.0
-0.1427554339203554,-0.9014134966128192,39.0
-0.14395724258289702,-0.901902032308494,39.0
-0.14522449627161668,-0.9011855132881709,39.0
-0.14706290655243534,-0.9015763418447108,39.0
-0.14737029985721084,-0.8993290776446066,39.0
-0.14800690147548787,-0.898970818134445,39.0
-0.14778280184039347,-0.8990685252735799,39.0
-0.1440246707916865,-0.8982542991141219,41.0
-0.1433841028081866,-0.8974400729546639,41.0
-0.14349119466920515,-0.8986776967170401,41.0
-0.14347334602570205,-0.9006969775924961,41.0
-0.14159725527526576,-0.9013809275664408,41.0
-0.14210693320640966,-0.9000781657113079,41.0
-0.14110145962240203,-0.8993942157373632,41.0
-0.13814850071394574,-0.9011529442417926,41.0
-0.1384400285578296,-0.900175872850443,41.0
-0.13577066476281135,-0.9014460656591975,41.0
-0.13463430112644773,-0.9019346013548724,41.0
-0.13355743296842773,-0.9010552371026577,41.0
-0.13450737743931462,-0.900990099009901,41.0
-0.13203633190544184,-0.9010878061490359,41.0
-0.13142154529589084,-0.9029442417926004,41.0
-0.1338925908297636,-0.9033350703491402,41.0
-0.13254600983658577,-0.9025859822824388,41.0
-0.13218903696652387,-0.9023579989577906,41.0
-0.1340333967951769,-0.9020323084940073,41.0
-0.13394018721243853,-0.9023905680041688,41.0
-0.1352471045533873,-0.9027488275143304,41.0
-0.13553863239727115,-0.9003712871287128,41.0
-0.1387117245755989,-0.900175872850443,41.0
-0.1395069808027923,-0.9026185513288171,41.0
-0.14103998096144693,-0.9005015633142261,41.0
-0.1427554339203554,-0.9014134966128192,41.0
-0.14395724258289702,-0.901902032308494,41.0
-0.14522449627161668,-0.9011855132881709,41.0
-0.14706290655243534,-0.9015763418447108,41.0
-0.14737029985721084,-0.8993290776446066,41.0
-0.14800690147548787,-0.898970818134445,41.0
-0.14778280184039347,-0.8990685252735799,41.0
-0.1440246707916865,-0.8982542991141219,42.5
-0.1433841028081866,-0.8974400729546639,42.5
-0.14349119466920515,-0.8986776967170401,42.5
-0.14347334602570205,-0.9006969775924961,42.5
-0.14159725527526576,-0.9013809275664408,42.5
-0.14210693320640966,-0.9000781657113079,42.5
-0.14110145962240203,-0.8993942157373632,42.5
-0.13814850071394574,-0.9011529442417926,42.5
-0.1384400285578296,-0.900175872850443,42.5
-0.13577066476281135,-0.9014460656591975,42.5
-0.13463430112644773,-0.9019346013548724,42.5
-0.13355743296842773,-0.9010552371026577,42.5
-0.13450737743931462,-0.900990099009901,42.5
-0.13203633190544184,-0.9010878061490359,42.5
-0.13142154529589084,-0.9029442417926004,42.5
-0.1338925908297636,-0.9033350703491402,42.5
-0.13254600983658577,-0.9025859822824388,42.5
-0.13218903696652387,-0.9023579989577906,42.5
-0.1340333967951769,-0.9020323084940073,42.5
-0.13394018721243853,-0.9023905680041688,42.5
-0.1352471045533873,-0.9027488275143304,42.5
-0.13553863239727115,-0.9003712871287128,42.5
-0.1387117245755989,-0.900175872850443,42.5
-0.1395069808027923,-0.9026185513288171,42.5
-0.14103998096144693,-0.9005015633142261,42.5
-0.1427554339203554,-0.9014134966128192,42.5
-0.14395724258289702,-0.901902032308494,42.5
-0.14522449627161668,-0.9011855132881709,42.5
-0.14706290655243534,-0.9015763418447108,42.5
-0.14737029985721084,-0.8993290776446066,42.5
-0.14800690147548787,-0.898970818134445,42.5
-0.14778280184039347,-0.8990685252735799,42.5
-0.14841940345867047,-0.8988731109953101,42.5
-0.14759836585752817,-0.8977331943720688,42.5
-0.14740599714421704,-0.8956162063574779,42.5
-0.14646398540377598,-0.8982542991141219,42.5
-0.14464342376646042,-0.897342365815529,42.5
-0.14496073298429318,-0.898352006253257,42.5
-0.14332064096462002,-0.8977983324648254,42.5
-0.14304299539901635,-0.8991336633663366,42.5
-0.1395069808027923,-0.8994593538301199,42.5
-0.1388921941932413,-0.8993290776446066,42.5
-0.13728184991273998,-0.8992965085982283,42.5
-0.13573298429319372,-0.9004038561750912,42.5
-0.13406512771696016,-0.9009575299635226,42.5
-0.13325797239409806,-0.9024557060969255,42.5
-0.13208789465333967,-0.9014786347055758,42.5
-0.13226043154053627,-0.9041818655549766,42.5
-0.1309574805648104,-0.9026511203751955,42.5
-0.12995002379819134,-0.9014460656591975,42.5
-0.1298548310328415,-0.9034653465346535,42.5
-0.1311339838172299,-0.9022928608650339,42.5
-0.13144336030461684,-0.9030745179781136,42.5
-0.1327145803585594,-0.9034002084418968,42.5
-0.1341563541170871,-0.9041492965085982,42.5
-0.1355366492146597,-0.9029768108389786,42.5
-0.1356239092495637,-0.9011529442417926,42.5
-0.13674639060764715,-0.9006318394997395,42.5
-0.13611375535459305,-0.8991010943199583,42.5
-0.13918967158495954,-0.8988405419489317,42.5
-0.14065326035221323,-0.8966909848879625,42.5
-0.14262057750277646,-0.8960721730067743,42.5
-0.1434356655560844,-0.8967561229807192,42.5
-0.14499841345391085,-0.8970818134445023,42.5
-0.14584523242900208,-0.896332725377801,42.5
-0.14529589084562908,-0.8984171443460135,42.5
-0.14699746152625734,-0.8956813444502345,42.5
-0.14795930509281294,-0.8962024491922876,42.5
-0.14722552752657464,-0.897146951537259,42.5
-0.1457460732984293,-0.895323084940073,42.5
-0.14428050134856418,-0.895941896821261,42.5
-0.14199389179755673,-0.8967886920270974,42.5
-0.14064334443915597,-0.9009575299635226,42.5
-0.1398639536728542,-0.8982217300677436,42.5
-0.13910439473266697,-0.8986451276706618,42.5
-0.13756941139140091,-0.9002410109431996,42.5
-0.1340155481516738,-0.8986451276706618,42.5
-0.13138188164366174,-0.8991988014590933,42.5
-0.12894653339679518,-0.8995896300156332,42.5
-0.12721124861177216,-0.8975377800937988,42.5
-0.12380612406790417,-0.8978634705575821,42.5
-0.12272132317943836,-0.8997199062011464,42.5
-0.12215413295256228,-0.9011203751954143,42.5
-0.12198952879581151,-0.900892391870766,42.5
-0.12304656512771696,-0.9006318394997395,42.5
-0.12432571791210535,-0.9006969775924961,42.5
-0.12486514358242107,-0.901999739447629,42.5
-0.1257555925749643,-0.8999478895257946,42.5
-0.12816317626527052,-0.899166232412715,42.5
-0.12982111692844678,-0.8987428348097968,42.5
-0.13117364746945898,-0.8973097967691506,42.5
-0.1333392828811677,-0.899166232412715,42.5
-0.1351459622402031,-0.8998501823866597,42.5
-0.1388961605584642,-0.8981240229286086,42.5
-0.14169443122322703,-0.8980263157894737,42.5
-0.14478819609709662,-0.9003061490359562,42.5
-0.14584523242900208,-0.896332725377801,44.0
-0.14529589084562908,-0.8984171443460135,44.0
-0.14699746152625734,-0.8956813444502345,44.0
-0.14795930509281294,-0.8962024491922876,44.0
-0.14722552752657464,-0.897146951537259,44.0
-0.1457460732984293,-0.895323084940073,44.0
-0.14428050134856418,-0.895941896821261,44.0
-0.14199389179755673,-0.8967886920270974,44.0
-0.14064334443915597,-0.9009575299635226,44.0
-0.1398639536728542,-0.8982217300677436,44.0
-0.13910439473266697,-0.8986451276706618,44.0
-0.13756941139140091,-0.9002410109431996,44.0
-0.1340155481516738,-0.8986451276706618,44.0
-0.13138188164366174,-0.8991988014590933,44.0
-0.12894653339679518,-0.8995896300156332,44.0
-0.12721124861177216,-0.8975377800937988,44.0
-0.12380612406790417,-0.8978634705575821,44.0
-0.12272132317943836,-0.8997199062011464,44.0
-0.12215413295256228,-0.9011203751954143,44.0
-0.12198952879581151,-0.900892391870766,44.0
-0.12304656512771696,-0.9006318394997395,44.0
-0.12432571791210535,-0.9006969775924961,44.0
-0.12486514358242107,-0.901999739447629,44.0
-0.1257555925749643,-0.8999478895257946,44.0
-0.12816317626527052,-0.899166232412715,44.0
-0.12982111692844678,-0.8987428348097968,44.0
-0.13117364746945898,-0.8973097967691506,44.0
-0.1333392828811677,-0.899166232412715,44.0
-0.1351459622402031,-0.8998501823866597,44.0
-0.1388961605584642,-0.8981240229286086,44.0
-0.14169443122322703,-0.8980263157894737,44.0
-0.14478819609709662,-0.9003061490359562,44.0
-0.14809416151039187,-0.8988405419489317,44.0
-0.14919879422497223,-0.8978309015112037,44.0
-0.1492087101380295,-0.8970166753517457,44.0
-0.1500793273044582,-0.897961177696717,44.0
-0.15130691734094875,-0.8965932777488275,44.0
-0.14984332857369506,-0.9000130276185513,44.0
-0.14934356655560843,-0.8988079729025534,44.0
-0.14834007615421227,-0.8984822824387702,44.0
-0.14685268919562114,-0.8992639395518499,44.0
-0.14521854672378232,-0.9005667014069828,44.0
-0.14440147548786292,-0.9012506513809275,44.0
-0.14279708075519593,-0.9022602918186555,44.0
-0.1399333650642551,-0.9020648775403857,44.0
-0.13802950975725845,-0.9012506513809275,44.0
-0.13617523401554815,-0.9011203751954143,44.0
-0.13314294780263367,-0.9000130276185513,44.0
-0.13112803426939554,-0.9010226680562793,44.0
-0.12855386323972712,-0.9014786347055758,44.0
-0.1277943042995399,-0.9011855132881709,44.0
-0.12823457083928289,-0.9014134966128192,44.0
-0.12712795494209106,-0.9025208441896821,44.0
-0.127812152943043,-0.9018368942157373,44.0
-0.12773679200380772,-0.9011529442417926,44.0
-0.12736197049024275,-0.8998827514330381,44.0
-0.12839917499603362,-0.9012180823345493,44.0
-0.12858162779628748,-0.9014460656591975,44.0
-0.13033079485959068,-0.9005992704533611,44.0
-0.13231001110582263,-0.9000455966649297,44.0
-0.13273044581945107,-0.9011529442417926,44.0
-0.13444788196097096,-0.9005667014069828,44.0
-0.13872362367126764,-0.8996873371547681,44.0
-0.13945145168967157,-0.8994593538301199,44.0
-0.14132159289227353,-0.8991988014590933,44.0
-0.14256306520704426,-0.8981891610213653,44.0
-0.14589481199428844,-0.8979286086503387,44.0
-0.14592455973346025,-0.9017717561229808,44.0
-0.14836784071077264,-0.900892391870766,44.0
-0.1469895287958115,-0.8995244919228765,44.0
-0.14760629858797397,-0.8980588848358521,44.0
-0.14779073457083927,-0.8992639395518499,44.0
-0.14900444232904966,-0.8994267847837415,44.0
-0.1486335871807076,-0.9002084418968213,44.0
-0.14748334126606377,-0.8989056800416884,44.0
-0.14695383150880534,-0.8985474205315268,44.0
-0.1460534666032048,-0.9001433038040646,44.0
-0.14476241472314771,-0.900794684731631,44.0
-0.1428169125813105,-0.9000455966649297,44.0
-0.1387652705061082,-0.9004364252214695,44.0
-0.13532841504045692,-0.9006644085461177,44.0
-0.13309535141995876,-0.9003387180823346,44.0
-0.13192527367920037,-0.8996547681083897,44.0
-0.13082262414723148,-0.901902032308494,44.0
-0.13180826590512454,-0.9034653465346535,44.0
-0.13200658416627004,-0.9019346013548724,44.0
-0.133018007298112,-0.902911672746222,44.0
-0.13359709662065683,-0.9029768108389786,44.0
-0.13436657147390133,-0.9035304846274101,44.0
-0.13433087418689513,-0.9026185513288171,44.0
-0.1353700618752975,-0.9031070870244919,44.0
-0.13579842931937172,-0.9013483585200626,44.0
-0.1353998096144693,-0.9000130276185513,44.0
-0.13742463906076471,-0.8999153204794164,44.0
-0.13846977629700144,-0.8995244919228765,44.0
-0.140399412977947,-0.8988731109953101,44.0
-0.14337617007774076,-0.8998827514330381,44.0
-0.14294185308583215,-0.8975377800937988,44.0
-0.14542083135015071,-0.8968212610734758,44.0
-0.14716801523084247,-0.896951537258989,44.0
-0.14857805806758687,-0.8968863991662324,44.0
-0.147253292083135,-0.8975703491401772,44.0
-0.14769157544026654,-0.8983845752996352,44.0
-0.14754680310963034,-0.8976029181865555,44.0
-0.14713231794383627,-0.8984171443460135,44.0
-0.1465988418213549,-0.8989382490880667,44.0
-0.14540496588925908,-0.897961177696717,44.0
-0.14506782484531175,-0.9000455966649297,44.0
-0.1426979216246232,-0.8991336633663366,44.0
-0.141432651118515,-0.8992965085982283,44.0
-0.14057789941297794,-0.8992639395518499,44.0
-0.13936815801999047,-0.9015112037519541,44.0
-0.13669086149452642,-0.9006969775924961,44.0
-0.13521735681421546,-0.9014134966128192,44.0
-0.1341880850388704,-0.9022928608650339,44.0
-0.1329128986197049,-0.8995570609692548,44.0
-0.1311994288434079,-0.8991988014590933,44.0
-0.12989647786768205,-0.8995570609692548,44.0
-0.1276673806124068,-0.8991010943199583,44.0
-0.12813144534348722,-0.8992313705054716,44.0
-0.12884935744883388,-0.8984497133923919,44.0
-0.12837934316991909,-0.8982542991141219,44.0
-0.12924797715373632,-0.8990685252735799,44.0
-0.1305846422338569,-0.8994593538301199,44.0
-0.13283952086308107,-0.8989056800416884,44.0
-0.13373790258607013,-0.8992639395518499,44.0
-0.13524908773599872,-0.8970492443981241,44.0
-0.13579644613676028,-0.8972120896300156,44.0
-0.13692487704267808,-0.8972120896300156,44.0
-0.1408436458829129,-0.896137311099531,44.0
-0.14176979216246233,-0.8967561229807192,44.0
-0.14297755037283832,-0.8950299635226681,44.0
-0.14411986355703632,-0.8951928087545596,44.0
-0.1458690306203395,-0.8954533611255863,44.0
-0.14526415992384578,-0.8944111516414799,44.0
-0.14635887672536887,-0.8956487754038561,44.0
-0.14481397747104555,-0.8938574778530485,44.0
-0.14405045216563542,-0.895127670661803,44.0
-0.144925035697287,-0.8960396039603961,44.0
-0.143146120894812,-0.8962675872850443,44.0
-0.1431203395208631,-0.8975052110474205,44.0
-0.1401455656036808,-0.8946391349661282,44.0
-0.1373591940345867,-0.8960721730067743,44.0
-0.1348683166745994,-0.895941896821261,44.0
-0.13239528795811517,-0.8967561229807192,44.0
-0.12996192289386008,-0.8995570609692548,44.0
-0.1276415992384579,-0.8984171443460135,44.0
-0.125021815008726,-0.8977331943720688,44.0
-0.1246529430429954,-0.898352006253257,44.0
-0.12316753926701571,-0.8994267847837415,44.0
-0.12305449785816278,-0.9011529442417926,44.0
-0.12380414088529272,-0.8999478895257946,44.0
-0.12288394415357766,-0.900175872850443,44.0
-0.12346699984134539,-0.8992965085982283,44.0
-0.12319728700618753,-0.9000781657113079,44.0
-0.12387553545930509,-0.8981891610213653,44.0
-0.12439116293828335,-0.8973749348619072,44.0
-0.12698913215928923,-0.8981891610213653,44.0
-0.12811756306520705,-0.898352006253257,44.0
-0.1309178169125813,-0.9004038561750912,44.0
-0.1321394574012375,-0.8987102657634184,44.0
-0.13412462319530383,-0.8975703491401772,44.0
-0.136950658416627,-0.8963001563314226,44.0
-0.1382595589401872,-0.8958441896821261,44.0
-0.1412045851181977,-0.8964304325169359,44.0
-0.14213668094558146,-0.8966584158415841,44.0
-0.14613081072505157,-0.898775403856175,44.0
-0.14581548468983024,-0.8965607087024492,44.0
-0.144310249087736,-0.8959093277748827,44.0
-0.14673171505632238,-0.8980588848358521,44.0
-0.1472235443439632,-0.8983194372068786,44.0
-0.14551602411550055,-0.8977983324648254,44.0
-0.14727709027447247,-0.8984171443460135,44.0
-0.1476221640488656,-0.8977006253256905,44.0
-0.146682135491036,-0.8986451276706618,44.0
-0.1450261780104712,-0.9023905680041688,44.0
-0.14279708075519593,-0.8987102657634184,44.0
-0.14172616214501033,-0.8994919228764982,44.0
-0.13913215928922734,-0.8985474205315268,44.0
-0.1344736633349199,-0.9001107347576863,44.0
-0.13371410439473266,-0.9002410109431996,44.0
-0.130689750912264,-0.9005667014069828,44.0
-0.12820283991749962,-0.8994919228764982,44.0
-0.1259757258448358,-0.8983194372068786,44.0
-0.12405798825955894,-0.8986451276706618,44.0
-0.12302276693637951,-0.897342365815529,44.0
-0.12324488338886244,-0.8989056800416884,44.0
-0.12430786926860225,-0.9021625846795206,44.0
-0.12493257179121053,-0.8977657634184472,44.0
-0.12619387593209583,-0.8987428348097968,44.0
-0.12726677772489292,-0.8982217300677436,44.0
-0.12971997461526258,-0.8980914538822303,44.0
-0.1321394574012375,-0.8987102657634184,45.0
-0.13412462319530383,-0.8975703491401772,45.0
-0.136950658416627,-0.8963001563314226,45.0
-0.1382595589401872,-0.8958441896821261,45.0
-0.1412045851181977,-0.8964304325169359,45.0
-0.14213668094558146,-0.8966584158415841,45.0
-0.14613081072505157,-0.898775403856175,45.0
-0.14581548468983024,-0.8965607087024492,45.0
-0.144310249087736,-0.8959093277748827,45.0
-0.14673171505632238,-0.8980588848358521,45.0
-0.1472235443439632,-0.8983194372068786,45.0
-0.14551602411550055,-0.8977983324648254,45.0
-0.14727709027447247,-0.8984171443460135,45.0
-0.1476221640488656,-0.8977006253256905,45.0
-0.146682135491036,-0.8986451276706618,45.0
-0.1450261780104712,-0.9023905680041688,45.0
-0.14279708075519593,-0.8987102657634184,45.0
-0.14172616214501033,-0.8994919228764982,45.0
-0.13913215928922734,-0.8985474205315268,45.0
-0.1344736633349199,-0.9001107347576863,45.0
-0.13371410439473266,-0.9002410109431996,45.0
-0.130689750912264,-0.9005667014069828,45.0
-0.12820283991749962,-0.8994919228764982,45.0
-0.1259757258448358,-0.8983194372068786,45.0
-0.12405798825955894,-0.8986451276706618,45.0
-0.12302276693637951,-0.897342365815529,45.0
-0.12324488338886244,-0.8989056800416884,45.0
-0.12430786926860225,-0.9021625846795206,45.0
-0.12493257179121053,-0.8977657634184472,45.0
-0.12619387593209583,-0.8987428348097968,45.0
-0.12726677772489292,-0.8982217300677436,45.0
-0.12971997461526258,-0.8980914538822303,45.0
-0.1321394574012375,-0.8987102657634184,46.0
-0.13412462319530383,-0.8975703491401772,46.0
-0.136950658416627,-0.8963001563314226,46.0
-0.1382595589401872,-0.8958441896821261,46.0
-0.1412045851181977,-0.8964304325169359,46.0
-0.14213668094558146,-0.8966584158415841,46.0
-0.14613081072505157,-0.898775403856175,46.0
-0.14581548468983024,-0.8965607087024492,46.0
-0.144310249087736,-0.8959093277748827,46.0
-0.14673171505632238,-0.8980588848358521,46.0
-0.1472235443439632,-0.8983194372068786,46.0
-0.14551602411550055,-0.8977983324648254,46.0
-0.14727709027447247,-0.8984171443460135,46.0
-0.1476221640488656,-0.8977006253256905,46.0
-0.146682135491036,-0.8986451276706618,46.0
-0.1450261780104712,-0.9023905680041688,46.0
-0.14279708075519593,-0.8987102657634184,46.0
-0.14172616214501033,-0.8994919228764982,46.0
-0.13913215928922734,-0.8985474205315268,46.0
-0.1344736633349199,-0.9001107347576863,46.0
-0.13371410439473266,-0.9002410109431996,46.0
-0.130689750912264,-0.9005667014069828,46.0
-0.12820283991749962,-0.8994919228764982,46.0
-0.1259757258448358,-0.8983194372068786,46.0
-0.12405798825955894,-0.8986451276706618,46.0
-0.12302276693637951,-0.897342365815529,46.0
-0.12324488338886244,-0.8989056800416884,46.0
-0.12430786926860225,-0.9021625846795206,46.0
-0.12493257179121053,-0.8977657634184472,46.0
-0.12619387593209583,-0.8987428348097968,46.0
-0.12726677772489292,-0.8982217300677436,46.0
-0.12971997461526258,-0.8980914538822303,46.0
-0.130689750912264,-0.899980458572173,46.0
-0.13335514834205933,-0.8970166753517457,46.0
-0.1346481834047279,-0.8993290776446066,46.0
-0.13688124702522608,-0.9000130276185513,46.0
-0.14087537680469617,-0.8977657634184472,46.0
-0.14402268760907505,-0.8971795205836373,46.0
-0.14425273679200382,-0.8991336633663366,46.0
-0.148242900206251,-0.8987428348097968,46.0
-0.1480049182928764,-0.8990033871808234,46.0
-0.14917102966841186,-0.8981891610213653,46.0
-0.149978184991274,-0.8988079729025534,46.0
-0.1495874980168174,-0.8981240229286086,46.0
-0.14795335554497857,-0.8980588848358521,46.0
-0.14808226241472314,-0.8978634705575821,46.0
-0.1471124861177217,-0.8985148514851485,46.0
-0.1458075519593844,-0.8983194372068786,46.0
-0.14446097096620658,-0.8981891610213653,46.0
-0.14377280660003172,-0.8984497133923919,46.0
-0.1427118039029034,-0.9004689942678479,46.0
-0.14072267174361416,-0.8988079729025534,46.0
-0.13676423925115025,-0.8986125586242835,46.0
-0.13426344597810566,-0.8993290776446066,46.0
-0.13311716642868476,-0.8980263157894737,46.0
-0.1317924004442329,-0.8999153204794164,46.0
-0.12895049976201808,-0.9000130276185513,46.0
-0.12946612724099635,-0.8994919228764982,46.0
-0.12889100428367445,-0.8989056800416884,46.0
-0.12704466127240996,-0.8993290776446066,46.0
-0.1268760907504363,-0.8992313705054716,46.0
-0.12712993812470252,-0.9003712871287128,46.0
-0.12759598603839442,-0.8999478895257946,46.0
-0.12986078058067588,-0.9004364252214695,46.0
-0.1321136760272886,-0.9000130276185513,46.0
-0.1331945105505315,-0.9005992704533611,46.0
-0.13491987942249722,-0.8991988014590933,46.0
-0.13604236078058068,-0.8980914538822303,46.0
-0.13632198952879582,-0.8987102657634184,46.0
-0.13950499762018087,-0.8985799895779052,46.0
-0.14164088529271776,-0.898775403856175,46.0
-0.1425888465809932,-0.896332725377801,46.0
-0.14524432809773125,-0.8980588848358521,46.0
-0.1477014913533238,-0.8966909848879625,46.0
-0.1493812470252261,-0.8973749348619072,46.0
-0.1490460891638902,-0.8980914538822303,46.0
-0.1488715690940822,-0.8977657634184472,46.0
-0.14834007615421227,-0.8983845752996352,46.0
-0.1478383309535142,-0.8978309015112037,46.0
-0.14740203077899414,-0.8980588848358521,46.0
-0.14628549896874504,-0.8957139134966128,46.0
-0.14254719974615263,-0.8954859301719645,46.0
-0.13990956687291767,-0.8947368421052632,46.0
-0.13772608281770585,-0.895941896821261,46.0
-0.13636958591147072,-0.8958441896821261,46.0
-0.13621093130255435,-0.8944437206878583,46.0
-0.13325400602887513,-0.8971795205836373,46.0
-0.1308087418689513,-0.8975052110474205,46.0
-0.12983103284150405,-0.8970818134445023,46.0
-0.1264675551324766,-0.8984171443460135,46.0
-0.12673925115024592,-0.8986451276706618,46.0
-0.12670355386323973,-0.8972446586763939,46.0
-0.12633071553228623,-0.8972772277227723,46.0
-0.12666190702839916,-0.8977331943720688,46.0
-0.12653101697604316,-0.8966584158415841,46.0
-0.12673726796763446,-0.8972446586763939,46.0
-0.1321136760272886,-0.9000130276185513,47.0
-0.1331945105505315,-0.9005992704533611,47.0
-0.13491987942249722,-0.8991988014590933,47.0
-0.13604236078058068,-0.8980914538822303,47.0
-0.13632198952879582,-0.8987102657634184,47.0
-0.13950499762018087,-0.8985799895779052,47.0
-0.14164088529271776,-0.898775403856175,47.0
-0.1425888465809932,-0.896332725377801,47.0
-0.14524432809773125,-0.8980588848358521,47.0
-0.1477014913533238,-0.8966909848879625,47.0
-0.1493812470252261,-0.8973749348619072,47.0
-0.1490460891638902,-0.8980914538822303,47.0
-0.1488715690940822,-0.8977657634184472,47.0
-0.14834007615421227,-0.8983845752996352,47.0
-0.1478383309535142,-0.8978309015112037,47.0
-0.14740203077899414,-0.8980588848358521,47.0
-0.14628549896874504,-0.8957139134966128,47.0
-0.14254719974615263,-0.8954859301719645,47.0
-0.13990956687291767,-0.8947368421052632,47.0
-0.13772608281770585,-0.895941896821261,47.0
-0.13636958591147072,-0.8958441896821261,47.0
-0.13621093130255435,-0.8944437206878583,47.0
-0.13325400602887513,-0.8971795205836373,47.0
-0.1308087418689513,-0.8975052110474205,47.0
-0.12983103284150405,-0.8970818134445023,47.0
-0.1264675551324766,-0.8984171443460135,47.0
-0.12673925115024592,-0.8986451276706618,47.0
-0.12670355386323973,-0.8972446586763939,47.0
-0.12633071553228623,-0.8972772277227723,47.0
-0.12666190702839916,-0.8977331943720688,47.0
-0.12653101697604316,-0.8966584158415841,47.0
-0.12673726796763446,-0.8972446586763939,47.0
-0.12780025384737426,-0.8984497133923919,47.0
-0.12908733936220848,-0.8981240229286086,47.0
-0.13211169284467714,-0.8987428348097968,47.0
-0.13472552752657466,-0.8998827514330381,47.0
-0.13536807869268602,-0.8985799895779052,47.0
-0.13751784864350308,-0.8973749348619072,47.0
-0.14025662382992227,-0.8984171443460135,47.0
-0.1414187688402348,-0.8975052110474205,47.0
-0.14214659685863873,-0.8975377800937988,47.0
-0.14378073933047755,-0.898775403856175,47.0
-0.1480663969538315,-0.8991336633663366,47.0
-0.14882992225924163,-0.8980263157894737,47.0
-0.1492225924163097,-0.8975703491401772,47.0
-0.1497977153736316,-0.8975052110474205,47.0
-0.1481853879105188,-0.8966584158415841,47.0
-0.14648580041250198,-0.8971143824908807,47.0
-0.14605743296842774,-0.8965607087024492,47.0
-0.14507972394098048,-0.8968212610734758,47.0
-0.14272568618118356,-0.8982542991141219,47.0
-0.14180945581469143,-0.8983845752996352,47.0
-0.140268522925591,-0.8985474205315268,47.0
-0.13814651753133428,-0.8992313705054716,47.0
-0.13699627161669045,-0.8981891610213653,47.0
-0.1338489608123116,-0.899785044293903,47.0
-0.13096343011264477,-0.8996547681083897,47.0
-0.1279351102649532,-0.8985148514851485,47.0
-0.12425035697287007,-0.8987428348097968,47.0
-0.12282841504045693,-0.8990685252735799,47.0
-0.12267174361415199,-0.8994593538301199,47.0
-0.12211446930033318,-0.8996873371547681,47.0
-0.12060725051562748,-0.8982217300677436,47.0
-0.12213628430905918,-0.8972772277227723,47.0
-0.12179517689988895,-0.8966258467952058,47.0
-0.1216742027605902,-0.8973097967691506,47.0
-0.12265984451848326,-0.8949973944762898,47.0
-0.12454783436458829,-0.8960721730067743,47.0
-0.12576550848802157,-0.8960396039603961,47.0
-0.12780223702998572,-0.8976354872329338,47.0
-0.1304299539901634,-0.8979286086503387,47.0
-0.13284150404569253,-0.8952579468473163,47.0
-0.13624464540694908,-0.8948019801980198,47.0
-0.13810487069649374,-0.8949973944762898,47.0
-0.1404787402824052,-0.8946717040125065,47.0
-0.14447683642709822,-0.8950951016154247,47.0
-0.14587101380295098,-0.8956487754038561,47.0
-0.1462260034904014,-0.8956487754038561,47.0
-0.14757258448357924,-0.8966909848879625,47.0
-0.147671743614152,-0.8968212610734758,47.0
-0.14704109154370934,-0.8963001563314226,47.0
-0.14630731397747104,-0.8965932777488275,47.0
-0.1457163255592575,-0.8969189682126107,47.0
-0.14382040298270665,-0.896332725377801,47.0
-0.14294780263366652,-0.8985474205315268,47.0
-0.1422140250674282,-0.8986451276706618,47.0
-0.14122441694431223,-0.8990033871808234,47.0
-0.14055013485641757,-0.8998501823866597,47.0
-0.14015944788196097,-0.9002410109431996,47.0
-0.13780342693955258,-0.9005992704533611,47.0
-0.13685149928605425,-0.9026185513288171,47.0
-0.13610185625892432,-0.9035956227201668,47.0
-0.1325519593844201,-0.9039538822303282,47.0
-0.13200658416627004,-0.9033350703491402,47.0
-0.13020783753768048,-0.9014786347055758,47.0
-0.12856576233539585,-0.9013483585200626,47.0
-0.140268522925591,-0.8985474205315268,48.0
-0.13814651753133428,-0.8992313705054716,48.0
-0.13699627161669045,-0.8981891610213653,48.0
-0.1338489608123116,-0.899785044293903,48.0
-0.13096343011264477,-0.8996547681083897,48.0
-0.1279351102649532,-0.8985148514851485,48.0
-0.12425035697287007,-0.8987428348097968,48.0
-0.12282841504045693,-0.8990685252735799,48.0
-0.12267174361415199,-0.8994593538301199,48.0
-0.12211446930033318,-0.8996873371547681,48.0
-0.12060725051562748,-0.8982217300677436,48.0
-0.12213628430905918,-0.8972772277227723,48.0
-0.12179517689988895,-0.8966258467952058,48.0
-0.1216742027605902,-0.8973097967691506,48.0
-0.12265984451848326,-0.8949973944762898,48.0
-0.12454783436458829,-0.8960721730067743,48.0
-0.12576550848802157,-0.8960396039603961,48.0
-0.12780223702998572,-0.8976354872329338,48.0
-0.1304299539901634,-0.8979286086503387,48.0
-0.13284150404569253,-0.8952579468473163,48.0
-0.13624464540694908,-0.8948019801980198,48.0
-0.13810487069649374,-0.8949973944762898,48.0
-0.1404787402824052,-0.8946717040125065,48.0
-0.14447683642709822,-0.8950951016154247,48.0
-0.14587101380295098,-0.8956487754038561,48.0
-0.1462260034904014,-0.8956487754038561,48.0
-0.14757258448357924,-0.8966909848879625,48.0
-0.147671743614152,-0.8968212610734758,48.0
-0.14704109154370934,-0.8963001563314226,48.0
-0.14630731397747104,-0.8965932777488275,48.0
-0.1457163255592575,-0.8969189682126107,48.0
-0.14382040298270665,-0.896332725377801,48.0
-0.14294780263366652,-0.8985474205315268,48.0
-0.1422140250674282,-0.8986451276706618,48.0
-0.14122441694431223,-0.8990033871808234,48.0
-0.14055013485641757,-0.8998501823866597,48.0
-0.14015944788196097,-0.9002410109431996,48.0
-0.13780342693955258,-0.9005992704533611,48.0
-0.13685149928605425,-0.9026185513288171,48.0
-0.13610185625892432,-0.9035956227201668,48.0
-0.1325519593844201,-0.9039538822303282,48.0
-0.13200658416627004,-0.9033350703491402,48.0
-0.13020783753768048,-0.9014786347055758,48.0
-0.12856576233539585,-0.9013483585200626,48.0
-0.1270307789941298,-0.8994593538301199,48.0
-0.1256286688878312,-0.9000455966649297,48.0
-0.12366730128510234,-0.8974400729546639,48.0
-0.1252419482785975,-0.896137311099531,48.0
-0.12507337775662383,-0.8971795205836373,48.0
-0.12862327463112802,-0.8988731109953101,48.0
-0.13170117404410597,-0.8970818134445023,48.0
-0.13278002538473743,-0.8984497133923919,48.0
-0.1354612882754244,-0.8986125586242835,48.0
-0.13808107250515628,-0.8977983324648254,48.0
-0.14038949706488973,-0.8987428348097968,48.0
-0.1431600031730922,-0.898156591974987,48.0
-0.14484372521021735,-0.8986451276706618,48.0
-0.1468150087260035,-0.8979937467430954,48.0
-0.14745359352689197,-0.8955836373110996,48.0
-0.14601578613358718,-0.8960396039603961,48.0
-0.1461645248294463,-0.8956813444502345,48.0
-0.14421505632238615,-0.8952579468473163,48.0
-0.14317983499920672,-0.896235018238666,48.0
-0.14236276376328733,-0.8945739968733716,48.0
-0.1419244804061558,-0.8952579468473163,48.0
-0.14021299381247027,-0.8951602397081814,48.0
-0.14019514516896717,-0.89421573736321,48.0
-0.1381722989052832,-0.8970818134445023,48.0
-0.13690901158178645,-0.898156591974987,48.0
-0.1347275107091861,-0.8979286086503387,48.0
-0.13371807075995557,-0.8978634705575821,48.0
-0.13089401872124384,-0.8981891610213653,48.0
-0.12747302871648422,-0.9009575299635226,48.0
-0.1266301761066159,-0.8988731109953101,48.0
-0.1258706171664287,-0.8986776967170401,48.0
-0.12541646834840553,-0.8997524752475248,48.0
-0.12238418213549103,-0.8986451276706618,48.0
-0.12229890528319848,-0.8989056800416884,48.0
-0.1211684911946692,-0.9002410109431996,48.0
-0.12212041884816754,-0.8979286086503387,48.0
-0.12303863239727114,-0.9003061490359562,48.0
-0.12515468824369347,-0.9006318394997395,48.0
-0.12676304934158336,-0.9012180823345493,48.0
-0.12975170553704585,-0.8988405419489317,48.0
-0.1303942567031572,-0.8965607087024492,48.0
-0.13247263207996193,-0.897146951537259,48.0
-0.13482666983975886,-0.8961047420531527,48.0
-0.13708948119942885,-0.896137311099531,48.0
-0.13958432492463907,-0.8946065659197499,48.0
-0.1409447881960971,-0.8961047420531527,48.0
-0.14278319847691576,-0.8952905158936947,48.0
-0.14392154529589085,-0.8940854611776967,48.0
-0.1425888465809932,-0.8929129755080771,48.0
-0.14183920355386323,-0.8959744658676394,48.0
-0.14384420117404412,-0.8946717040125065,48.0
-0.14270387117245756,-0.8951928087545596,48.0
-0.14152586070125336,-0.8957464825429912,48.0
-0.1418372203712518,-0.8937597707139135,48.0
-0.14031810249087737,-0.8942808754559667,48.0
-0.13783714104394731,-0.896137311099531,48.0
-0.1378470569570046,-0.8951928087545596,48.0
-0.13523917182294146,-0.8969189682126107,48.0
-0.1349218626051087,-0.8977006253256905,48.0
-0.1333174678724417,-0.898156591974987,48.0
-0.13045375218150088,-0.8984171443460135,48.0
-0.12858559416151039,-0.8976354872329338,48.0
-0.12680866254164683,-0.8987428348097968,48.0
-0.12464501031254958,-0.9001107347576863,48.0
-0.12238418213549103,-0.8986451276706618,49.0
-0.12229890528319848,-0.8989056800416884,49.0
-0.1211684911946692,-0.9002410109431996,49.0
-0.12212041884816754,-0.8979286086503387,49.0
-0.12303863239727114,-0.9003061490359562,49.0
-0.12515468824369347,-0.9006318394997395,49.0
-0.12676304934158336,-0.9012180823345493,49.0
-0.12975170553704585,-0.8988405419489317,49.0
-0.1303942567031572,-0.8965607087024492,49.0
-0.13247263207996193,-0.897146951537259,49.0
-0.13482666983975886,-0.8961047420531527,49.0
-0.13708948119942885,-0.896137311099531,49.0
-0.13958432492463907,-0.8946065659197499,49.0
-0.1409447881960971,-0.8961047420531527,49.0
-0.14278319847691576,-0.8952905158936947,49.0
-0.14392154529589085,-0.8940854611776967,49.0
-0.1425888465809932,-0.8929129755080771,49.0
-0.14183920355386323,-0.8959744658676394,49.0
-0.14384420117404412,-0.8946717040125065,49.0
-0.14270387117245756,-0.8951928087545596,49.0
-0.14152586070125336,-0.8957464825429912,49.0
-0.1418372203712518,-0.8937597707139135,49.0
-0.14031810249087737,-0.8942808754559667,49.0
-0.13783714104394731,-0.896137311099531,49.0
-0.1378470569570046,-0.8951928087545596,49.0
-0.13523917182294146,-0.8969189682126107,49.0
-0.1349218626051087,-0.8977006253256905,49.0
-0.1333174678724417,-0.898156591974987,49.0
-0.13045375218150088,-0.8984171443460135,49.0
-0.12858559416151039,-0.8976354872329338,49.0
-0.12680866254164683,-0.8987428348097968,49.0
-0.12464501031254958,-0.9001107347576863,49.0
-0.12301285102332223,-0.8997199062011464,49.0
-0.12209860383944153,-0.9002084418968213,49.0
-0.12253688719657306,-0.8987428348097968,49.0
-0.12253887037918451,-0.8986451276706618,49.0
-0.12260034904013961,-0.9006644085461177,49.0
-0.12288791051880057,-0.8995244919228765,49.0
-0.1249821513564969,-0.897961177696717,49.0
-0.12659844518483263,-0.8982868681605003,49.0
-0.127812152943043,-0.896951537258989,49.0
-0.12978541964144058,-0.896951537258989,49.0
-0.131810249087736,-0.8963001563314226,49.0
-0.13407504363001746,-0.8960396039603961,49.0
-0.13723227034745358,-0.8968863991662324,49.0
-0.1394455021418372,-0.8977331943720688,49.0
-0.14025662382992227,-0.8958116206357478,49.0
-0.14349714421703952,-0.8955836373110996,49.0
-0.14357448833888625,-0.8957464825429912,49.0
-0.14458194510550532,-0.8976680562793121,49.0
-0.14635094399492304,-0.8958116206357478,49.0
-0.1458511819768364,-0.8963001563314226,49.0
-0.14603958432492464,-0.8955510682647212,49.0
-0.14567071235919404,-0.8965281396560709,49.0
-0.1433880691734095,-0.8948996873371547,49.0
-0.14071275583055687,-0.8969189682126107,49.0
-0.1377280660003173,-0.8952579468473163,49.0
-0.13497540853561796,-0.8950299635226681,49.0
-0.13396200222116453,-0.8962024491922876,49.0
-0.1315286371569094,-0.8969841063053674,49.0
-0.13025345073774394,-0.8971143824908807,49.0
-0.12858956052673332,-0.8988731109953101,49.0
-0.12737188640330002,-0.8971795205836373,49.0
-0.12763961605584642,-0.8976029181865555,49.0
-0.12301285102332223,-0.8997199062011464,50.0
-0.12209860383944153,-0.9002084418968213,50.0
-0.12253688719657306,-0.8987428348097968,50.0
-0.12253887037918451,-0.8986451276706618,50.0
-0.12260034904013961,-0.9006644085461177,50.0
-0.12288791051880057,-0.8995244919228765,50.0
-0.1249821513564969,-0.897961177696717,50.0
-0.12659844518483263,-0.8982868681605003,50.0
-0.127812152943043,-0.896951537258989,50.0
-0.12978541964144058,-0.896951537258989,50.0
-0.131810249087736,-0.8963001563314226,50.0
-0.13407504363001746,-0.8960396039603961,50.0
-0.13723227034745358,-0.8968863991662324,50.0
-0.1394455021418372,-0.8977331943720688,50.0
-0.14025662382992227,-0.8958116206357478,50.0
-0.14349714421703952,-0.8955836373110996,50.0
-0.14357448833888625,-0.8957464825429912,50.0
-0.14458194510550532,-0.8976680562793121,50.0
-0.14635094399492304,-0.8958116206357478,50.0
-0.1458511819768364,-0.8963001563314226,50.0
-0.14603958432492464,-0.8955510682647212,50.0
-0.14567071235919404,-0.8965281396560709,50.0
-0.1433880691734095,-0.8948996873371547,50.0
-0.14071275583055687,-0.8969189682126107,50.0
-0.1377280660003173,-0.8952579468473163,50.0
-0.13497540853561796,-0.8950299635226681,50.0
-0.13396200222116453,-0.8962024491922876,50.0
-0.1315286371569094,-0.8969841063053674,50.0
-0.13025345073774394,-0.8971143824908807,50.0
-0.12858956052673332,-0.8988731109953101,50.0
-0.12737188640330002,-0.8971795205836373,50.0
-0.12763961605584642,-0.8976029181865555,50.0
-0.12595192765349833,-0.8967235539343408,50.0
-0.12551959384420117,-0.8991988014590933,50.0
-0.1270525940028558,-0.8981240229286086,50.0
-0.12645565603680786,-0.9000781657113079,50.0
-0.12682452800253846,-0.8983194372068786,50.0
-0.12768324607329842,-0.8971143824908807,50.0
-0.1276098683166746,-0.8979286086503387,50.0
-0.1299956369982548,-0.8993942157373632,50.0
-0.13140369665238774,-0.898775403856175,50.0
-0.13249841345391083,-0.8977006253256905,50.0
-0.1340115817864509,-0.898156591974987,50.0
-0.13491987942249722,-0.8975703491401772,50.0
-0.13551086784071079,-0.8965607087024492,50.0
-0.13848167539267014,-0.8953556539864512,50.0
-0.13935229255909884,-0.8952905158936947,50.0
-0.14172814532762176,-0.8958116206357478,50.0
-0.1408912422655878,-0.8948996873371547,50.0
-0.1433662541646835,-0.8949973944762898,50.0
-0.14363001745200699,-0.8943785825951016,50.0
-0.14522052990639378,-0.8958116206357478,50.0
-0.14418530858321435,-0.8961047420531527,50.0
-0.14292995399016342,-0.8954207920792079,50.0
-0.14480009519276535,-0.8956487754038561,50.0
-0.14348127875614786,-0.8965281396560709,50.0
-0.14277923211169286,-0.8972120896300156,50.0
-0.14045097572584483,-0.8948019801980198,50.0
-0.13845192765349834,-0.8949648254299114,50.0
-0.13686339838172298,-0.8965607087024492,50.0
-0.13493971124861176,-0.8962024491922876,50.0
-0.13407107726479453,-0.8968212610734758,50.0
-0.13090591781691258,-0.8965607087024492,50.0
-0.1303069966682532,-0.8977006253256905,50.0
-0.12891281929240045,-0.8974400729546639,50.0
-0.12654886561954626,-0.8977983324648254,50.0
-0.12448437252102174,-0.8980263157894737,50.0
-0.12436339838172299,-0.8983194372068786,50.0
-0.12257456766619071,-0.8985799895779052,50.0
-0.12374266222433762,-0.8990033871808234,50.0
-0.12431183563382517,-0.898156591974987,50.0
-0.12430191972076789,-0.8995896300156332,50.0
-0.12426820561637315,-0.8983845752996352,50.0
-0.12542440107885133,-0.8990033871808234,50.0
-0.12790734570839282,-0.8986776967170401,50.0
-0.12867682056163732,-0.8966584158415841,50.0
-0.13058265905124544,-0.896137311099531,50.0
-0.13211962557512297,-0.895941896821261,50.0
-0.13568737109313025,-0.8951602397081814,50.0
-0.13700420434713628,-0.896235018238666,50.0
-0.1391559574805648,-0.8948345492443981,50.0
-0.1408476122481358,-0.8941505992704534,50.0
-0.1434713628430906,-0.8963978634705576,50.0
-0.14384221799143265,-0.8944762897342365,50.0
-0.14585316515944788,-0.896235018238666,50.0
-0.14774710455338727,-0.8976354872329338,50.0
-0.1470391083610979,-0.8965932777488275,50.0
-0.1485066634935745,-0.8968212610734758,50.0
-0.14870498175471997,-0.8973097967691506,50.0
-0.1480406155798826,-0.897961177696717,50.0
-0.14677732825638584,-0.8972120896300156,50.0
-0.14433801364429635,-0.8975052110474205,50.0
-0.14265230842455973,-0.897961177696717,50.0
-0.13994923052514677,-0.8959744658676394,50.0
-0.13779549420910678,-0.8951602397081814,50.0
-0.1332024432809773,-0.8961047420531527,50.0
-0.12891281929240045,-0.8974400729546639,50.0
-0.12654886561954626,-0.8977983324648254,50.0
-0.12448437252102174,-0.8980263157894737,50.0
-0.12436339838172299,-0.8983194372068786,50.0
-0.12257456766619071,-0.8985799895779052,50.0
-0.12374266222433762,-0.8990033871808234,50.0
-0.12431183563382517,-0.898156591974987,50.0
-0.12430191972076789,-0.8995896300156332,50.0
-0.12426820561637315,-0.8983845752996352,50.0
-0.12542440107885133,-0.8990033871808234,50.0
-0.12790734570839282,-0.8986776967170401,50.0
-0.12867682056163732,-0.8966584158415841,50.0
-0.13058265905124544,-0.896137311099531,50.0
-0.13211962557512297,-0.895941896821261,50.0
-0.13568737109313025,-0.8951602397081814,50.0
-0.13700420434713628,-0.896235018238666,50.0
-0.1391559574805648,-0.8948345492443981,50.0
-0.1408476122481358,-0.8941505992704534,50.0
-0.1434713628430906,-0.8963978634705576,50.0
-0.14384221799143265,-0.8944762897342365,50.0
-0.14585316515944788,-0.896235018238666,50.0
-0.14774710455338727,-0.8976354872329338,50.0
-0.1470391083610979,-0.8965932777488275,50.0
-0.1485066634935745,-0.8968212610734758,50.0
-0.14870498175471997,-0.8973097967691506,50.0
-0.1480406155798826,-0.897961177696717,50.0
-0.14677732825638584,-0.8972120896300156,50.0
-0.14433801364429635,-0.8975052110474205,50.0
-0.14265230842455973,-0.897961177696717,50.0
-0.13994923052514677,-0.8959744658676394,50.0
-0.13779549420910678,-0.8951602397081814,50.0
-0.1332024432809773,-0.8961047420531527,50.0
-0.13094161510391877,-0.8982542991141219,50.0
-0.12971204188481675,-0.8992965085982283,50.0
-0.12719934951610345,-0.8954533611255863,50.0
-0.12530144375694113,-0.8978960396039604,50.0
-0.12521616690464857,-0.899166232412715,50.0
-0.12543828335713153,-0.897342365815529,50.0
-0.1251586546089164,-0.8980914538822303,50.0
-0.12500198318261146,-0.8973749348619072,50.0
-0.1256504838965572,-0.8960070349140177,50.0
-0.12581508805330796,-0.8971795205836373,50.0
-0.12786371569094082,-0.8975703491401772,50.0
-0.12694550214183722,-0.8972120896300156,50.0
-0.12868078692686022,-0.897342365815529,50.0
-0.13014635887672538,-0.8947368421052632,50.0
-0.13152268760907504,-0.8971143824908807,50.0
-0.13280580675868633,-0.8972446586763939,50.0
-0.13621688085038872,-0.8971795205836373,50.0
-0.13843011264477234,-0.8961047420531527,50.0
-0.1407028399174996,-0.8954207920792079,50.0
-0.14274948437252102,-0.8978634705575821,50.0
-0.14408416627003015,-0.8957790515893694,50.0
-0.14493495161034428,-0.8966258467952058,50.0
-0.14475249881009045,-0.8958116206357478,50.0
-0.14438759320958275,-0.896235018238666,50.0
-0.14459979374900842,-0.8972772277227723,50.0
-0.1454565286371569,-0.8992639395518499,50.0
-0.14455219736633348,-0.8958441896821261,50.0
-0.14323139774710456,-0.8964630015633143,50.0
-0.14211486593685546,-0.8967235539343408,50.0
-0.1411649214659686,-0.8965932777488275,50.0
-0.13950896398540377,-0.8993290776446066,50.0
-0.13944946850706014,-0.8975703491401772,50.0
-0.13644693003331748,-0.8975703491401772,50.0
-0.13418015230842456,-0.8956813444502345,50.0
-0.13165952720926544,-0.8963652944241792,50.0
-0.12808583214342376,-0.8948671182907765,50.0
-0.12639417737585276,-0.8971143824908807,50.0
-0.12478383309535142,-0.8954533611255863,50.0
-0.1242483737902586,-0.895225377800938,50.0
-0.12364548627637632,-0.8961047420531527,50.0
-0.12510907504363003,-0.8973097967691506,50.0
-0.12548984610502936,-0.897342365815529,50.0
-0.1260590195145169,-0.8964955706096925,50.0
-0.1269157544026654,-0.895225377800938,50.0
-0.12717356814215452,-0.8982542991141219,50.0
-0.12889298746628589,-0.8960396039603961,50.0
-0.12903577661431065,-0.8956162063574779,50.0
-0.13077899412977947,-0.896332725377801,50.0
-0.13241313660161827,-0.8964630015633143,50.0
-0.13596105029351102,-0.8955184992183429,50.0
-0.13744645406949071,-0.8959744658676394,50.0
-0.1390072187847057,-0.8956813444502345,50.0
-0.1421485800412502,-0.8957790515893694,50.0
-0.14318380136442962,-0.8956813444502345,50.0
-0.14370339520863082,-0.8960721730067743,50.0
-0.14438164366174838,-0.8951602397081814,50.0
-0.14486157385372045,-0.8955836373110996,50.0
-0.14460376011423132,-0.8956487754038561,50.0
-0.14502022846263685,-0.8949322563835331,50.0
-0.14512533714104395,-0.8949322563835331,50.0
-0.14321949865143582,-0.8943785825951016,50.0
-0.1414683484055212,-0.895127670661803,50.0
-0.13910042836744407,-0.8922615945805107,50.0
-0.13805925749643028,-0.8946391349661282,50.0
-0.13755552911312074,-0.8958767587285045,50.0
-0.13614350309376488,-0.8931735278791036,50.0
-0.13306560368078693,-0.8944437206878583,50.0
-0.13085832143423767,-0.8947694111516414,50.0
-0.12853601459622402,-0.8954533611255863,50.0
-0.12550372838330953,-0.895323084940073,50.0
-0.12608678407107726,-0.8946717040125065,50.0
-0.12641599238457876,-0.8975052110474205,50.0
-0.12432373472949389,-0.8954859301719645,50.0
-0.1252637632873235,-0.8973097967691506,50.0
-0.12495042043471363,-0.8970818134445023,50.0
-0.12550372838330953,-0.8941831683168316,50.0
-0.12625138822782803,-0.895941896821261,50.0
-0.12753252419482786,-0.8968212610734758,50.0
-0.12885530699666825,-0.8963001563314226,50.0
-0.12887910518800572,-0.8942808754559667,50.0
-0.1303069966682532,-0.8941831683168316,50.0
-0.13092574964302714,-0.8949648254299114,50.0
-0.13438442011740442,-0.8948345492443981,50.0
-0.13730961446930035,-0.896235018238666,50.0
-0.1387613041408853,-0.8958441896821261,50.0
-0.14117682056163733,-0.8961698801459094,50.0
-0.1430191972076789,-0.8961698801459094,50.0
-0.1440028557829605,-0.8934340802501303,50.0
-0.14360026971283515,-0.8948019801980198,50.0
-0.14381247025226082,-0.895127670661803,50.0
-0.1429438362684436,-0.8928804064616988,50.0
-0.14221204188481676,-0.8923267326732673,50.0
-0.14040734570839283,-0.8926198540906722,50.0
-0.14118078692686023,-0.893401511203752,50.0
-0.13959225765508487,-0.8930106826472121,50.0
-0.1368277010947168,-0.8935317873892652,50.0
-0.13553069966682532,-0.8924570088587807,50.0
-0.13506465175313342,-0.8931735278791036,50.0
-0.13452720926542916,-0.8947694111516414,50.0
-0.1315425194351896,-0.895127670661803,50.0
-0.13128470569570047,-0.8935643564356436,50.0
-0.12833571315246708,-0.8946065659197499,50.0
-0.12585475170553703,-0.8944111516414799,50.0
-0.1249206726955418,-0.8928152683689422,50.0
-0.12533515786133587,-0.8960396039603961,50.0
-0.12397667777248929,-0.8948019801980198,50.0
-0.12393304775503729,-0.897342365815529,50.0
-0.12390924956369982,-0.896235018238666,50.0
-0.12517055370458513,-0.8970818134445023,50.0
-0.12618990956687293,-0.8961047420531527,50.0
-0.12749484372521022,-0.8974726420010423,50.0
-0.12902784388386482,-0.8984171443460135,50.0
-0.13009876249405045,-0.8974075039082856,50.0
-0.13079684277328257,-0.8968863991662324,50.0
-0.13237545613200064,-0.8971143824908807,50.0
-0.13400364905600506,-0.8955510682647212,50.0
-0.13617523401554815,-0.8940203230849401,50.0
-0.13802356020942408,-0.8962024491922876,50.0
-0.14027050610820244,-0.8950625325690463,50.0
-0.1413929874662859,-0.8945739968733716,50.0
-0.1428962398857687,-0.8938249088066701,50.0
-0.1416825321275583,-0.8936946326211569,50.0
-0.14321354910360146,-0.8937272016675352,50.0
-0.14293788672060923,-0.8920336112558624,50.0
-0.14312628906869745,-0.8934992183428869,50.0
-0.14319173409487546,-0.8919033350703491,50.0
-0.1412343328573695,-0.8953556539864512,50.0
-0.14029628748215137,-0.8920336112558624,50.0
-0.13553069966682532,-0.8924570088587807,51.0
-0.13506465175313342,-0.8931735278791036,51.0
-0.13452720926542916,-0.8947694111516414,51.0
-0.1315425194351896,-0.895127670661803,51.0
-0.13128470569570047,-0.8935643564356436,51.0
-0.12833571315246708,-0.8946065659197499,51.0
-0.12585475170553703,-0.8944111516414799,51.0
-0.1249206726955418,-0.8928152683689422,51.0
-0.12533515786133587,-0.8960396039603961,51.0
-0.12397667777248929,-0.8948019801980198,51.0
-0.12393304775503729,-0.897342365815529,51.0
-0.12390924956369982,-0.896235018238666,51.0
-0.12517055370458513,-0.8970818134445023,51.0
-0.12618990956687293,-0.8961047420531527,51.0
-0.12749484372521022,-0.8974726420010423,51.0
-0.12902784388386482,-0.8984171443460135,51.0
-0.13009876249405045,-0.8974075039082856,51.0
-0.13079684277328257,-0.8968863991662324,51.0
-0.13237545613200064,-0.8971143824908807,51.0
-0.13400364905600506,-0.8955510682647212,51.0
-0.13617523401554815,-0.8940203230849401,51.0
-0.13802356020942408,-0.8962024491922876,51.0
-0.14027050610820244,-0.8950625325690463,51.0
-0.1413929874662859,-0.8945739968733716,51.0
-0.1428962398857687,-0.8938249088066701,51.0
-0.1416825321275583,-0.8936946326211569,51.0
-0.14321354910360146,-0.8937272016675352,51.0
-0.14293788672060923,-0.8920336112558624,51.0
-0.14312628906869745,-0.8934992183428869,51.0
-0.14319173409487546,-0.8919033350703491,51.0
-0.1412343328573695,-0.8953556539864512,51.0
-0.14029628748215137,-0.8920336112558624,51.0
-0.13993138188164367,-0.8934340802501303,51.0
-0.1386601618277011,-0.8935643564356436,51.0
-0.13694669205140408,-0.8920987493486191,51.0
-0.13578851340631445,-0.8932712350182387,51.0
-0.13392630493415833,-0.8928804064616988,51.0
-0.13112208472156117,-0.895127670661803,51.0
-0.12857567824845312,-0.8935969254820219,51.0
-0.12743733142947802,-0.8964304325169359,51.0
-0.1250793273044582,-0.8959744658676394,51.0
-0.12494050452165635,-0.8956813444502345,51.0
-0.12517848643503093,-0.897146951537259,51.0
-0.12298508646676186,-0.8952905158936947,51.0
-0.12410558464223385,-0.8963001563314226,51.0
-0.12573576074884976,-0.8977331943720688,51.0
-0.12704664445502142,-0.8970166753517457,51.0
-0.12746707916864985,-0.897146951537259,51.0
-0.12990837696335078,-0.8963978634705576,51.0
-0.1321573060447406,-0.8966584158415841,51.0
-0.13391638902110106,-0.8958441896821261,51.0
-0.1348603839441536,-0.8969189682126107,51.0
-0.13657583690306205,-0.8952905158936947,51.0
-0.13888029509757258,-0.8948345492443981,51.0
-0.14063541170871013,-0.8960721730067743,51.0
-0.1430191972076789,-0.8966258467952058,51.0
-0.14406830080913852,-0.8974400729546639,51.0
-0.14451848326193875,-0.8941831683168316,51.0
-0.14464144058384895,-0.8935643564356436,51.0
-0.14563501507218785,-0.8952905158936947,51.0
-0.14478224654926225,-0.8926849921834289,51.0
-0.14455021418372205,-0.8932712350182387,51.0
-0.14374702522608282,-0.891577644606566,51.0
-0.14365778200856735,-0.8940854611776967,51.0
-0.13993138188164367,-0.8934340802501303,52.0
-0.1386601618277011,-0.8935643564356436,52.0
-0.13694669205140408,-0.8920987493486191,52.0
-0.13578851340631445,-0.8932712350182387,52.0
-0.13392630493415833,-0.8928804064616988,52.0
-0.13112208472156117,-0.895127670661803,52.0
-0.12857567824845312,-0.8935969254820219,52.0
-0.12743733142947802,-0.8964304325169359,52.0
-0.1250793273044582,-0.8959744658676394,52.0
-0.12494050452165635,-0.8956813444502345,52.0
-0.12517848643503093,-0.897146951537259,52.0
-0.12298508646676186,-0.8952905158936947,52.0
-0.12410558464223385,-0.8963001563314226,52.0
-0.12573576074884976,-0.8977331943720688,52.0
-0.12704664445502142,-0.8970166753517457,52.0
-0.12746707916864985,-0.897146951537259,52.0
-0.12990837696335078,-0.8963978634705576,52.0
-0.1321573060447406,-0.8966584158415841,52.0
-0.13391638902110106,-0.8958441896821261,52.0
-0.1348603839441536,-0.8969189682126107,52.0
-0.13657583690306205,-0.8952905158936947,52.0
-0.13888029509757258,-0.8948345492443981,52.0
-0.14063541170871013,-0.8960721730067743,52.0
-0.1430191972076789,-0.8966258467952058,52.0
-0.14406830080913852,-0.8974400729546639,52.0
-0.14451848326193875,-0.8941831683168316,52.0
-0.14464144058384895,-0.8935643564356436,52.0
-0.14563501507218785,-0.8952905158936947,52.0
-0.14478224654926225,-0.8926849921834289,52.0
-0.14455021418372205,-0.8932712350182387,52.0
-0.14374702522608282,-0.891577644606566,52.0
-0.14365778200856735,-0.8940854611776967,52.0
-0.14309654132952562,-0.8924570088587807,52.0
-0.1408575281611931,-0.8914147993746743,52.0
-0.13739687450420435,-0.8932386659718603,52.0
-0.13436458829128986,-0.892294163626889,52.0
-0.1333035855941615,-0.8940528921313184,52.0
-0.13377161669046486,-0.8920987493486191,52.0
-0.12860939235284785,-0.891577644606566,52.0
-0.127855782960495,-0.8939551849921834,52.0
-0.1261780104712042,-0.8936294945284002,52.0
-0.12472235443439632,-0.8948345492443981,52.0
-0.12522211645248293,-0.8943460135487233,52.0
-0.12412739965095985,-0.8923267326732673,52.0
-0.1227768522925591,-0.8927175612298072,52.0
-0.1226757099793749,-0.8935969254820219,52.0
-0.12140448992543233,-0.8941831683168316,52.0
-0.12335594161510392,-0.8926524231370505,52.0
-0.12316158971918134,-0.8928804064616988,52.0
-0.12499405045216563,-0.8939877540385618,52.0
-0.1263406314453435,-0.8943785825951016,52.0
-0.12754244010788512,-0.8938900468994267,52.0
-0.13025146755513248,-0.8954859301719645,52.0
-0.13149690623512614,-0.8951928087545596,52.0
-0.13276217674123433,-0.895127670661803,52.0
-0.13593526891956212,-0.8956162063574779,52.0
-0.13691892749484372,-0.8942483064095883,52.0
-0.1390468824369348,-0.8938249088066701,52.0
-0.1414366174837379,-0.893401511203752,52.0
-0.1413572901792797,-0.892391870766024,52.0
-0.1425392670157068,-0.8930432516935904,52.0
-0.14315207044264636,-0.8927175612298072,52.0
-0.1434495478343646,-0.89421573736321,52.0
-0.14500039663652228,-0.8936294945284002,52.0
-0.14620418848167538,-0.8935643564356436,52.0
-0.1458511819768364,-0.8945088587806149,52.0
-0.14304299539901635,-0.893303804064617,52.0
-0.1429656512771696,-0.8951602397081814,52.0
-0.14176384261462796,-0.8933689421573736,52.0
-0.1400345073774393,-0.8952579468473163,52.0
-0.1392709820720292,-0.8937923397602918,52.0
-0.13718467396477868,-0.8956813444502345,52.0
-0.13460851975249882,-0.8957790515893694,52.0
-0.1338271458035856,-0.8937272016675352,52.0
-0.13192527367920037,-0.8948996873371547,52.0
-0.1304081389814374,-0.8957139134966128,52.0
-0.13083254006028874,-0.8969841063053674,52.0
-0.12967237823258765,-0.897342365815529,52.0
-0.12890686974456608,-0.8963652944241792,52.0
-0.12821473901316832,-0.8957464825429912,52.0
-0.12861930826590512,-0.8957464825429912,52.0
-0.12897231477074408,-0.8986125586242835,52.0
-0.12864707282246549,-0.8986451276706618,52.0
-0.13058067586863398,-0.8954859301719645,52.0
-0.13207004600983657,-0.8968538301198541,52.0
-0.1326630176106616,-0.8959744658676394,52.0
-0.13354355069014756,-0.8955184992183429,52.0
-0.13389655719498653,-0.8970166753517457,52.0
-0.13674837379025861,-0.8949973944762898,52.0
-0.13895763921941934,-0.8941831683168316,52.0
-0.14056600031730923,-0.8954533611255863,52.0
-0.14277129938124702,-0.8956487754038561,52.0
-0.14364984927812152,-0.896332725377801,52.0
-0.14395724258289702,-0.8936620635747785,52.0
-0.14381643661748375,-0.8936620635747785,52.0
-0.14493296842773282,-0.8934340802501303,52.0
-0.14620418848167538,-0.8935643564356436,53.0
-0.1458511819768364,-0.8945088587806149,53.0
-0.14304299539901635,-0.893303804064617,53.0
-0.1429656512771696,-0.8951602397081814,53.0
-0.14176384261462796,-0.8933689421573736,53.0
-0.1400345073774393,-0.8952579468473163,53.0
-0.1392709820720292,-0.8937923397602918,53.0
-0.13718467396477868,-0.8956813444502345,53.0
-0.13460851975249882,-0.8957790515893694,53.0
-0.1338271458035856,-0.8937272016675352,53.0
-0.13192527367920037,-0.8948996873371547,53.0
-0.1304081389814374,-0.8957139134966128,53.0
-0.13083254006028874,-0.8969841063053674,53.0
-0.12967237823258765,-0.897342365815529,53.0
-0.12890686974456608,-0.8963652944241792,53.0
-0.12821473901316832,-0.8957464825429912,53.0
-0.12861930826590512,-0.8957464825429912,53.0
-0.12897231477074408,-0.8986125586242835,53.0
-0.12864707282246549,-0.8986451276706618,53.0
-0.13058067586863398,-0.8954859301719645,53.0
-0.13207004600983657,-0.8968538301198541,53.0
-0.1326630176106616,-0.8959744658676394,53.0
-0.13354355069014756,-0.8955184992183429,53.0
-0.13389655719498653,-0.8970166753517457,53.0
-0.13674837379025861,-0.8949973944762898,53.0
-0.13895763921941934,-0.8941831683168316,53.0
-0.14056600031730923,-0.8954533611255863,53.0
-0.14277129938124702,-0.8956487754038561,53.0
-0.14364984927812152,-0.896332725377801,53.0
-0.14395724258289702,-0.8936620635747785,53.0
-0.14381643661748375,-0.8936620635747785,53.0
-0.14493296842773282,-0.8934340802501303,53.0
-0.14293788672060923,-0.8948345492443981,53.0
-0.1432908932254482,-0.8940528921313184,53.0
-0.14287045851181976,-0.8930106826472121,53.0
-0.14204148818023163,-0.8925221469515373,53.0
-0.139828256385848,-0.8913496612819176,53.0
-0.1394633507853403,-0.8903400208441897,53.0
-0.1383825162620974,-0.8930432516935904,53.0
-0.13654608916389022,-0.8933363731109953,53.0
-0.133480088846581,-0.8926524231370505,53.0
-0.1315683008091385,-0.8931083897863471,53.0
-0.12919244804061558,-0.8924895779051589,53.0
-0.12654886561954626,-0.8941831683168316,53.0
-0.12314969062351261,-0.8915125065138093,53.0
-0.12225725844835793,-0.8928152683689422,53.0
-0.12222552752657465,-0.8923593017196456,53.0
-0.12080953514199587,-0.8929781136008338,53.0
-0.12035340314136125,-0.8914473684210527,53.0
-0.12036530223702999,-0.8912193850964044,53.0
-0.12196573060447406,-0.8923593017196456,53.0
-0.12168808503887038,-0.8914473684210527,53.0
-0.12274512137077583,-0.892294163626889,53.0
-0.12330437886720609,-0.8925221469515373,53.0
-0.12629303506266856,-0.8927826993225638,53.0
-0.12755632238616532,-0.8935969254820219,53.0
-0.12880374424877042,-0.8941831683168316,53.0
-0.1326312866888783,-0.8916102136529442,53.0
-0.1344597810566397,-0.8943785825951016,53.0
-0.13727788354751705,-0.8946065659197499,53.0
-0.1394375694113914,-0.8944437206878583,53.0
-0.1414187688402348,-0.8949322563835331,53.0
-0.1424262256068539,-0.8928152683689422,53.0
-0.14448675234015548,-0.8916427826993225,53.0
-0.14463945740123751,-0.8923593017196456,53.0
-0.1477114072663811,-0.8956813444502345,53.0
-0.1465016658733936,-0.8945739968733716,53.0
-0.14534943677613835,-0.8948996873371547,53.0
-0.14428645089639855,-0.8947042730588849,53.0
-0.14516896715849595,-0.8956487754038561,53.0
