-0.158985800412502,-0.8860409067222512,0.0
-0.15977312390924955,-0.8862688900468995,0.0
-0.16104037759796921,-0.8860409067222512,0.0
-0.15901554815167382,-0.8844775924960917,0.0
-0.16031651594478818,-0.8886464304325169,0.0
-0.1590254640647311,-0.8882881709223553,0.0
-0.15902348088211962,-0.8900468994267848,0.0
-0.1579842931937173,-0.8896560708702449,0.0
-0.15849595430747263,-0.8906982803543513,0.0
-0.156260907504363,-0.892196456487754,0.0
-0.15480326828494367,-0.8955510682647212,0.0
-0.15391083610978898,-0.899785044293903,0.0
-0.15311557988259558,-0.9014134966128192,0.0
-0.15467634459781057,-0.9033350703491402,0.0
-0.1549639060764715,-0.9027488275143304,0.0
-0.15247104553387275,-0.9032699322563835,0.0
-0.15149928605425989,-0.9012506513809275,0.0
-0.1507873234967476,-0.8981891610213653,0.0
-0.15024988100904332,-0.8974075039082856,0.0
-0.15131485007139459,-0.8943460135487233,0.0
-0.1508170712359194,-0.8924570088587807,0.0
-0.15055529113120736,-0.8950951016154247,0.0
-0.15163215928922735,-0.8956162063574779,0.0
-0.15268919562113278,-0.8944111516414799,0.0
-0.1541250198318261,-0.8924570088587807,0.0
-0.15439473266698397,-0.892391870766024,0.0
-0.15586228779946057,-0.8923593017196456,0.0
-0.15764318578454703,-0.8905028660760813,0.0
-0.1577899412977947,-0.8895909327774882,0.0
-0.16095510074567665,-0.8905028660760813,0.0
-0.16193082659051244,-0.8917079207920792,0.0
-0.16162343328573694,-0.8906005732152162,0.0
-0.1621569094082183,-0.8899491922876498,0.0
-0.16240480723465017,-0.8912193850964044,0.0
-0.16135173726796764,-0.8906982803543513,0.0
-0.16222037125178487,-0.8918381969775925,0.0
-0.16051681738854515,-0.8936620635747785,0.0
-0.1595391083610979,-0.8919033350703491,0.0
-0.15873393622084722,-0.8919033350703491,0.0
-0.1572227510709186,-0.8919033350703491,0.0
-0.15719102014913533,-0.8910565398645127,0.0
-0.15743296842773283,-0.8908611255862429,0.0
-0.1542797080755196,-0.8914799374674309,0.0
-0.15374623195303824,-0.8906331422615946,0.0
-0.15264159923845788,-0.8910239708181344,0.0
-0.15003371410439473,-0.8903400208441897,0.0
-0.1474258289703316,-0.8906657113079729,0.0
-0.14718586387434554,-0.8925872850442939,0.0
-0.14892908138981437,-0.8947368421052632,0.0
-0.1492662224337617,-0.8963001563314226,0.0
-0.14957559892114866,-0.8943460135487233,0.0
-0.14929795335554497,-0.8948345492443981,0.0
-0.14972632079961923,-0.8936620635747785,0.0
-0.15099159130572742,-0.8924895779051589,0.0
-0.15003768046961763,-0.8925221469515373,0.0
-0.15118396001903855,-0.8915125065138093,0.0
-0.15153101697604315,-0.8928152683689422,0.0
-0.15129303506266856,-0.8911216779572694,0.0
-0.15219339996826908,-0.8871156852527358,0.0
-0.15383349198794224,-0.8872133923918708,0.0
-0.15556481040774234,-0.888353309015112,0.0
-0.1570343487228304,-0.8892978113600833,0.0
-0.15915437093447565,-0.8899817613340282,0.0
-0.159644217039505,-0.8913170922355393,0.0
-0.1603998096144693,-0.8904051589369463,0.0
-0.15955100745676662,-0.8904702970297029,0.0
-0.16010233222275108,-0.8902097446586764,0.0
-0.16079446295414881,-0.8913170922355393,0.0
-0.16084999206726955,-0.8901446065659198,0.0
-0.16088965571949865,-0.8873762376237624,0.0
-0.16058226241472315,-0.8867899947889526,0.0
-0.15995755989211485,-0.8896886399166233,0.0
-0.16012613041408852,-0.8927175612298072,0.0
-0.16016579406631762,-0.8925547159979156,0.0
-0.157996192289386,-0.8933689421573736,0.0
-0.15683404727907346,-0.8919684731631058,0.0
-0.1533515786133587,-0.8925221469515373,0.0
-0.15228660955100745,-0.8911542470036478,0.0
-0.15146160558464222,-0.8925547159979156,0.0
-0.1499524036173251,-0.8915450755601876,0.0
-0.14887751864191653,-0.8934992183428869,0.0
-0.14945264159923846,-0.8935317873892652,0.0
-0.14849873076312867,-0.8909262636789995,0.0
-0.14726122481358084,-0.8882230328295988,0.0
-0.14606139933365064,-0.8863991662324127,0.0
-0.14544066317626528,-0.8904377279833247,0.0
-0.14879819133745836,-0.8964630015633143,0.0
-0.15267927970807552,-0.9026836894215737,0.0
-0.15616174837379027,-0.9022602918186555,0.0
-0.15622322703474537,-0.8984171443460135,0.0
-0.15547358400761543,-0.8967886920270974,0.0
-0.15413096937966048,-0.8915125065138093,0.0
-0.1554041726162145,-0.8902748827514331,0.0
-0.1556322386165318,-0.8892001042209484,0.0
-0.1560328415040457,-0.8876042209484106,0.0
-0.15717713787085516,-0.8888092756644086,0.0
-0.16185943201650008,-0.8878647733194373,0.0
-0.1614588291289862,-0.8906005732152162,0.0
-0.16058622877994605,-0.8900794684731631,0.0
-0.1620993971124861,-0.8906982803543513,0.0
-0.16154807234650168,-0.8907308494007296,0.0
-0.1618455497382199,-0.8902423137050547,0.0
-0.15977114072663812,-0.88936294945284,0.0
-0.15937252102173569,-0.8878973423658155,0.0
-0.15936260510867842,-0.8912193850964044,0.0
-0.1576808662541647,-0.8902748827514331,0.0
-0.15687966047913693,-0.8909588327253778,0.0
-0.1555410122164049,-0.8929781136008338,0.0
-0.15586823734729494,-0.8946717040125065,0.0
-0.15301642075202285,-0.8919033350703491,0.0
-0.15119784229731872,-0.8899817613340282,0.0
-0.1497104553387276,-0.893303804064617,0.0
-0.14958948119942883,-0.8963001563314226,0.0
-0.1509717594796129,-0.8977331943720688,0.0
-0.14993653815643346,-0.8972120896300156,0.0
-0.15040258607012533,-0.8944762897342365,0.0
-0.15076154212279866,-0.8937923397602918,0.0
-0.14939116293828336,-0.8928478374153205,0.0
-0.14973425353006506,-0.8950299635226681,0.0
-0.15211605584642235,-0.8998176133402814,0.0
-0.15248691099476439,-0.8963652944241792,0.0
-0.1512970014278915,-0.8972120896300156,0.0
-0.15183444391559575,-0.8956487754038561,0.0
-0.15204267808979852,-0.8947368421052632,0.0
-0.15363517372679678,-0.8912845231891611,0.0
-0.15437490084086944,-0.8925221469515373,0.0
-0.1547576550848802,-0.8882230328295988,0.0
-0.15681818181818183,-0.8874739447628973,0.0
-0.15820244328097732,-0.8884835852006253,0.0
-0.15942606695224495,-0.8867248566961959,0.0
-0.15960653656988735,-0.8870505471599791,0.0
-0.1595391083610979,-0.8852592496091715,0.0
-0.16030858321434238,-0.8863340281396561,0.0
-0.1612862922417896,-0.8852592496091715,0.0
-0.15965809931778518,-0.8877670661803022,0.0
-0.16071315246707918,-0.8877344971339239,0.0
-0.15989211486593685,-0.8872459614382491,0.0
-0.16127637632873235,-0.8892978113600833,0.0
-0.1589104394732667,-0.8903074517978113,0.0
-0.15867047437728066,-0.8914799374674309,0.0
-0.15766500079327306,-0.8928804064616988,0.0
-0.15746271616690466,-0.8931735278791036,0.0
-0.1548766460415675,-0.8934992183428869,0.0
-0.15401396160558464,-0.8934992183428869,0.0
-0.15159249563699825,-0.8936294945284002,0.0
-0.15309971442170395,-0.8963652944241792,0.0
-0.1505533079485959,-0.8947042730588849,0.0
-0.1495438679993654,-0.896332725377801,0.0
-0.1497719339996827,-0.8971795205836373,0.0
-0.14989092495637,-0.8985799895779052,0.0
-0.14988695859114706,-0.896951537258989,0.0
-0.1500317309217833,-0.8973097967691506,0.0
-0.14905402189433603,-0.8974726420010423,0.0
-0.148264715214977,-0.8975703491401772,0.0
-0.14920276059019513,-0.8946391349661282,0.0
-0.15083690306203396,-0.8923267326732673,0.0
-0.1516083610978899,-0.890177175612298,0.0
-0.1509975408535618,-0.8887441375716519,0.0
-0.15121965730604475,-0.8872785304846275,0.0
-0.1540377597969221,-0.8888744137571651,0.0
-0.15445224496271617,-0.8871482542991141,0.0
-0.15589401872124387,-0.8817417926003127,0.0
-0.15584047279073457,-0.8861060448150078,0.0
-0.15963033476122482,-0.8937923397602918,0.0
-0.16119704902427415,-0.8933363731109953,0.0
-0.16294224972235444,-0.8927826993225638,0.0
-0.1632734412184674,-0.8914473684210527,0.0
-0.161907028399175,-0.8923267326732673,0.0
-0.1616115341900682,-0.8926849921834289,0.0
-0.16108400761542122,-0.8903074517978113,0.0
-0.16124662858956051,-0.8918056279312142,0.0
-0.1586784071077265,-0.8901446065659198,0.0
-0.1580576709503411,-0.8887441375716519,0.0
-0.1564850071394574,-0.8885161542470037,0.0
-0.15617563065207044,-0.8929455445544554,0.0
-0.15741511978422973,-0.8943785825951016,0.0
-0.1566912581310487,-0.8969841063053674,0.0
-0.15604672378232587,-0.8959744658676394,0.0
-0.15448199270188798,-0.8962024491922876,0.0
-0.1518146120894812,-0.8956813444502345,0.0
-0.15086863398381722,-0.8953882230328296,0.0
-0.1504878629224179,-0.8937272016675352,0.0
-0.14840155481516737,-0.897342365815529,0.0
-0.14791369189274947,-0.8960070349140177,0.0
-0.14683484055211804,-0.8965607087024492,0.0
-0.14796327145803587,-0.8977331943720688,0.0
-0.1491968110423608,-0.8984171443460135,0.0
-0.1490381564334444,-0.8973097967691506,0.0
-0.1519157544026654,-0.8948996873371547,0.0
-0.15251269236871332,-0.8929455445544554,0.0
-0.15330596541329525,-0.8933689421573736,0.0
-0.15347255275265748,-0.8902423137050547,0.0
-0.15475963826749167,-0.8908611255862429,0.0
-0.15686974456607963,-0.8897863470557582,0.0
-0.1567130731397747,-0.8890046899426784,0.0
-0.15627082341742027,-0.8869202709744659,0.0
-0.16014397905759162,-0.8883207399687337,0.0
-0.1620121370775821,-0.8870831162063575,0.0
-0.16023917182294145,-0.8917730588848358,0.0
-0.161510391876884,-0.888548723293382,0.0
-0.16160161827701094,-0.8893303804064617,0.0
-0.16188124702522608,-0.8920661803022407,0.0
-0.16118316674599398,-0.8900143303804064,0.0
-0.16033238140567985,-0.8922615945805107,0.0
-0.16082817705854355,-0.8907959874934862,0.0
-0.16017769316198635,-0.8927501302761855,0.0
-0.15771259717594796,-0.8914799374674309,0.0
-0.158458273837855,-0.8922290255341324,0.0
-0.15753411074091703,-0.8944437206878583,0.0
-0.15513049341583374,-0.8935969254820219,0.0
-0.15267531334285261,-0.8954859301719645,0.0
-0.15152308424559732,-0.8959744658676394,0.0
-0.15211407266381088,-0.8972446586763939,0.0
-0.1495557670950341,-0.8961698801459094,0.0
-0.1480406155798826,-0.895323084940073,0.0
-0.1470113438045375,-0.8940528921313184,0.0
-0.14653934634301127,-0.8917404898384576,0.0
-0.14675947961288274,-0.8957790515893694,0.0
-0.14902229097255276,-0.9002735799895779,0.0
-0.1504799301919721,-0.9020974465867639,0.0
-0.15153696652387752,-0.9007295466388744,0.0
-0.15175511661113755,-0.8965932777488275,0.0
-0.15005949547834366,-0.8957464825429912,0.0
-0.15177296525464065,-0.8941831683168316,0.0
-0.15456132000634618,-0.8938574778530485,0.0
-0.15425194351895924,-0.8927826993225638,0.0
-0.15564413771220054,-0.8894280875455967,0.0
-0.15628073933047756,-0.8875716519020324,0.0
-0.1566694431223227,-0.8839239187076603,0.0
-0.15907702681262892,-0.8838262115685253,0.0
-0.15722473425353006,-0.8839564877540386,0.0
-0.1587260034904014,-0.8844775924960917,0.0
-0.15981675392670158,-0.8851289734236581,0.0
-0.16055449785816278,-0.883598228243877,0.0
-0.16021933999682691,-0.8858454924439813,0.0
-0.1597235443439632,-0.888548723293382,0.0
-0.1590909090909091,-0.8878647733194373,0.0
-0.15976122481358082,-0.8892652423137051,0.0
-0.1571751546882437,-0.8857803543512246,0.0
-0.15611415199111534,-0.8890698280354351,0.0
-0.15560050769474854,-0.8900468994267848,0.0
-0.15654450261780103,-0.8903074517978113,0.0
-0.155140409328891,-0.8918056279312142,0.0
-0.15427177534507377,-0.8934340802501303,0.0
-0.15250674282087895,-0.8919033350703491,0.0
-0.15161034428050135,-0.8918056279312142,0.0
-0.1486910994764398,-0.8915125065138093,0.0
-0.14781453276217674,-0.8898840541948931,0.0
-0.14719577978740284,-0.8886789994788953,0.0
-0.14446692051404092,-0.8901446065659198,0.0
-0.1463529271775345,-0.8935643564356436,0.0
-0.14707678883071554,-0.8955836373110996,0.0
-0.1483341266063779,-0.8970818134445023,0.0
-0.14789782643185784,-0.8955510682647212,0.0
-0.14806838013644297,-0.8931083897863471,0.0
-0.14939116293828336,-0.8920661803022407,0.0
-0.15066238299222592,-0.8927501302761855,0.0
-0.15231239092495638,-0.8923593017196456,0.0
-0.15230049182928765,-0.8917730588848358,0.0
-0.15516817388545137,-0.891382230328296,0.0
-0.15711962557512296,-0.8930758207399687,0.0
-0.15708591147072823,-0.8918056279312142,0.0
-0.15863279390766302,-0.8882556018759771,0.0
-0.16018760907504362,-0.8871808233454924,0.0
-0.16012811359669998,-0.8895257946847316,0.0
-0.16214897667777248,-0.8887441375716519,0.0
-0.1627280660003173,-0.8895257946847316,0.0
-0.1611593685546565,-0.8874088066701407,0.0
-0.16144693003331748,-0.8868551328817093,0.0
-0.16174044105981278,-0.8876367899947889,0.0
-0.15946573060447405,-0.8876693590411673,0.0
-0.15822822465492623,-0.8889069828035435,0.0
-0.1581191496112962,-0.8904051589369463,0.0
-0.15678843407901,-0.8931083897863471,0.0
-0.15593764873869587,-0.8930106826472121,0.0
-0.15675075360939236,-0.8939877540385618,0.0
-0.15411113755354594,-0.8946391349661282,0.0
-0.15301245438679995,-0.8961698801459094,0.0
-0.15181659527209265,-0.8954207920792079,0.0
-0.1487129144851658,-0.8940854611776967,0.0
-0.1484094875456132,-0.8920336112558624,0.0
-0.14740996350943994,-0.8917404898384576,0.0
-0.1473147707440901,-0.8925547159979156,0.0
-0.14700936062192607,-0.8912193850964044,0.0
-0.14729890528319847,-0.8923267326732673,0.0
-0.1468804537521815,-0.893206096925482,0.0
-0.14953196890369666,-0.8935643564356436,0.0
-0.1506286688878312,-0.8902423137050547,0.0
-0.1497679676344598,-0.8902423137050547,0.0
-0.15089441535776615,-0.8952905158936947,0.0
-0.15301047120418848,-0.8980263157894737,0.0
-0.15337141043947328,-0.8978960396039604,0.0
-0.15481715056322387,-0.8962675872850443,0.0
-0.15688362684435983,-0.8940528921313184,0.0
-0.1570125337141044,-0.8909914017717562,0.0
-0.15695303823576076,-0.8863014590932777,0.0
-0.15947961288275425,-0.8880601875977071,0.0
-0.16005076947485325,-0.8884184471078687,0.0
-0.15947366333491989,-0.8897863470557582,0.0
-0.1597453593526892,-0.8874088066701407,0.0
-0.15935070601300969,-0.8895257946847316,0.0
-0.15802395684594636,-0.8877019280875456,0.0
-0.15877359987307632,-0.8859106305367379,0.0
-0.15924361415199112,-0.886431735278791,0.0
-0.15801800729811202,-0.8882881709223553,0.0
-0.1574389179755672,-0.8892326732673267,0.0
-0.15699666825321276,-0.8901446065659198,0.0
-0.15658416627003013,-0.8906005732152162,0.0
-0.15495399016341424,-0.88955836373111,0.0
-0.15239568459463748,-0.887539082855654,0.0
-0.15279033793431698,-0.8925221469515373,0.0
-0.153514199587498,-0.9005341323606045,0.0
-0.15349436776138348,-0.8993942157373632,0.0
-0.150592971600825,-0.8969841063053674,0.0
-0.14907187053783913,-0.8956487754038561,0.0
-0.14885173726796763,-0.893303804064617,0.0
-0.14893106457242583,-0.8952905158936947,0.0
-0.15025186419165476,-0.8969841063053674,0.0
-0.15107488497540852,-0.8964304325169359,0.0
-0.1507119625575123,-0.8931083897863471,0.0
-0.15006346184356656,-0.895323084940073,0.0
-0.1501546882436935,-0.8958767587285045,0.0
-0.15125932095827382,-0.8948019801980198,0.0
-0.15227669363795018,-0.8936946326211569,0.0
-0.15352014913533238,-0.8920987493486191,0.0
-0.1537779628748215,-0.8919684731631058,0.0
-0.1559098841821355,-0.8914799374674309,0.0
-0.15607845470410917,-0.8882881709223553,0.0
-0.15607845470410917,-0.8872785304846275,0.0
-0.15783158813263526,-0.8886464304325169,0.0
-0.15836506425511662,-0.8861711829077644,0.0
-0.15921188323020785,-0.8863991662324127,0.0
-0.15957083928288116,-0.8888418447107869,0.0
-0.15857329842931936,-0.8867574257425742,0.0
-0.15854355069014756,-0.8865620114643044,0.0
-0.15900563223861652,-0.8860083376758728,0.0
-0.15852966841186736,-0.887441375716519,0.0
-0.15875575122957322,-0.8878322042730589,0.0
-0.1584979374900841,-0.8850964043772799,0.0
-0.1592099000475964,-0.8872459614382491,0.0
-0.15711962557512296,-0.8893955184992184,0.0
-0.15680429953990163,-0.8912845231891611,0.0
-0.1552772489290814,-0.8935317873892652,0.0
-0.15292321116928448,-0.8943785825951016,0.0
-0.15135451372362368,-0.8930432516935904,0.0
-0.14982151356496906,-0.895941896821261,0.0
-0.15059495478343646,-0.8950625325690463,0.0
-0.15000594954783436,-0.8975052110474205,0.0
-0.15143979057591622,-0.8947694111516414,0.0
-0.14921069332064096,-0.8934340802501303,0.0
-0.14992662224337616,-0.8934666492965087,0.0
-0.14866730128510233,-0.8945739968733716,0.0
-0.14902625733777566,-0.8946391349661282,0.0
-0.14946255751229573,-0.8927826993225638,0.0
-0.15045018245280026,-0.8929455445544554,0.0
-0.15005949547834366,-0.8921638874413758,0.0
-0.15147350468031096,-0.892294163626889,0.0
-0.1487129144851658,-0.8893955184992184,0.0
-0.1486692844677138,-0.8876042209484106,0.0
-0.15230247501189909,-0.8890372589890568,0.0
-0.15340710772647945,-0.890372589890568,0.0
-0.1549163096937966,-0.8862363210005211,0.0
-0.15472989052831984,-0.8844775924960917,0.0
-0.15625099159130573,-0.8832725377800938,0.0
-0.15512454386799937,-0.8820349140177176,0.0
-0.15396041567507537,-0.8838262115685253,0.0
-0.1541567507536094,-0.8797876498176134,0.0
-0.15393066793590354,-0.8816766545075561,0.0
-0.15859313025543392,-0.8867248566961959,0.0
-0.16183761700777408,-0.8886138613861386,0.0
-0.16144296366809455,-0.894118030224075,0.0
-0.16031651594478818,-0.8953882230328296,0.0
-0.15808345232429002,-0.8955836373110996,0.0
-0.15761740441059813,-0.8967561229807192,0.0
-0.1587656671426305,-0.8940528921313184,0.0
-0.15899769950817072,-0.8913170922355393,0.0
-0.15680033317467873,-0.8942808754559667,0.0
-0.15417261621450104,-0.8929129755080771,0.0
-0.15308186577820085,-0.8918381969775925,0.0
-0.1512137077582104,-0.8934340802501303,0.0
-0.1512831191496113,-0.8932712350182387,0.0
-0.14943875932095826,-0.8936294945284002,0.0
-0.14944470886879263,-0.8919359041167274,0.0
-0.14830239568459463,-0.8939226159458051,0.0
-0.14902625733777566,-0.8946391349661282,0.10294117647058823
-0.14946255751229573,-0.8927826993225638,0.10294117647058823
-0.15045018245280026,-0.8929455445544554,0.10294117647058823
-0.15005949547834366,-0.8921638874413758,0.10294117647058823
-0.15147350468031096,-0.892294163626889,0.10294117647058823
-0.1487129144851658,-0.8893955184992184,0.10294117647058823
-0.1486692844677138,-0.8876042209484106,0.10294117647058823
-0.15230247501189909,-0.8890372589890568,0.10294117647058823
-0.15340710772647945,-0.890372589890568,0.10294117647058823
-0.1549163096937966,-0.8862363210005211,0.10294117647058823
-0.15472989052831984,-0.8844775924960917,0.10294117647058823
-0.15625099159130573,-0.8832725377800938,0.10294117647058823
-0.15512454386799937,-0.8820349140177176,0.10294117647058823
-0.15396041567507537,-0.8838262115685253,0.10294117647058823
-0.1541567507536094,-0.8797876498176134,0.10294117647058823
-0.15393066793590354,-0.8816766545075561,0.10294117647058823
-0.15859313025543392,-0.8867248566961959,0.10294117647058823
-0.16183761700777408,-0.8886138613861386,0.10294117647058823
-0.16144296366809455,-0.894118030224075,0.10294117647058823
-0.16031651594478818,-0.8953882230328296,0.10294117647058823
-0.15808345232429002,-0.8955836373110996,0.10294117647058823
-0.15761740441059813,-0.8967561229807192,0.10294117647058823
-0.1587656671426305,-0.8940528921313184,0.10294117647058823
-0.15899769950817072,-0.8913170922355393,0.10294117647058823
-0.15680033317467873,-0.8942808754559667,0.10294117647058823
-0.15417261621450104,-0.8929129755080771,0.10294117647058823
-0.15308186577820085,-0.8918381969775925,0.10294117647058823
-0.1512137077582104,-0.8934340802501303,0.10294117647058823
-0.1512831191496113,-0.8932712350182387,0.10294117647058823
-0.14943875932095826,-0.8936294945284002,0.10294117647058823
-0.14944470886879263,-0.8919359041167274,0.10294117647058823
-0.14830239568459463,-0.8939226159458051,0.10294117647058823
-0.14844121846739647,-0.8930106826472121,0.10294117647058823
-0.14740004759638267,-0.8934992183428869,0.10294117647058823
-0.14764794542281454,-0.8932712350182387,0.10294117647058823
-0.14891718229414563,-0.8905354351224596,0.10294117647058823
-0.1497937490084087,-0.8926849921834289,0.10294117647058823
-0.1494328097731239,-0.8943785825951016,0.10294117647058823
-0.15042440107885133,-0.8925547159979156,0.10294117647058823
-0.15252260828177058,-0.8921313183949974,0.10294117647058823
-0.15430350626685704,-0.8928152683689422,0.10294117647058823
-0.1559178169125813,-0.8909588327253778,0.10294117647058823
-0.15588013644296367,-0.8914147993746743,0.10294117647058823
-0.1564056798349992,-0.8905354351224596,0.10294117647058823
-0.15775226082817706,-0.8906005732152162,0.10294117647058823
-0.16006663493574488,-0.8895909327774882,0.10294117647058823
-0.16096501665873394,-0.8906331422615946,0.10294117647058823
-0.161466761859432,-0.8866597186034393,0.10294117647058823
-0.15937847056957005,-0.888451016154247,0.10294117647058823
-0.16005870220529905,-0.890177175612298,0.10294117647058823
-0.16052673330160241,-0.8924244398124023,0.10294117647058823
-0.16058821196255751,-0.8909914017717562,0.10294117647058823
-0.16026495319689038,-0.8909262636789995,0.10294117647058823
-0.1580576709503411,-0.8927826993225638,0.10294117647058823
-0.157821672219578,-0.8913496612819176,0.10294117647058823
-0.15763723623671266,-0.8925547159979156,0.10294117647058823
-0.15770069808027923,-0.8922290255341324,0.10294117647058823
-0.15613001745200697,-0.8923593017196456,0.10294117647058823
-0.15414485165794067,-0.8920661803022407,0.10294117647058823
-0.15284785023004918,-0.8934992183428869,0.10294117647058823
-0.15230842455973345,-0.8918381969775925,0.10294117647058823
-0.1500356972870062,-0.89421573736321,0.10294117647058823
-0.14988695859114706,-0.8954207920792079,0.10294117647058823
-0.14973425353006506,-0.8950299635226681,0.10294117647058823
-0.14854434396319213,-0.8940528921313184,0.10294117647058823
-0.1487307631286689,-0.8946717040125065,0.10294117647058823
-0.14904807234650166,-0.8939877540385618,0.10294117647058823
-0.14964302712993813,-0.8946065659197499,0.10294117647058823
-0.149428843407901,-0.8941505992704534,0.10294117647058823
-0.14986117721719816,-0.8964955706096925,0.10294117647058823
-0.15089838172298906,-0.8958441896821261,0.10294117647058823
-0.15112248135808345,-0.8930432516935904,0.10294117647058823
-0.1510411708710138,-0.8907959874934862,0.10294117647058823
-0.15072187847056956,-0.8907959874934862,0.10294117647058823
-0.15392471838806918,-0.8928152683689422,0.10294117647058823
-0.1546703950499762,-0.8909914017717562,0.10294117647058823
-0.15508686339838174,-0.8909588327253778,0.10294117647058823
-0.15653656988735523,-0.8906005732152162,0.10294117647058823
-0.15716920514040933,-0.8897863470557582,0.10294117647058823
-0.15647905759162303,-0.8896560708702449,0.10294117647058823
-0.1578296049500238,-0.8886464304325169,0.10294117647058823
-0.1574964302712994,-0.8888418447107869,0.10294117647058823
-0.15891638902110106,-0.8871156852527358,0.10294117647058823
-0.15743693479295573,-0.886431735278791,0.10294117647058823
-0.1565425194351896,-0.8849986972381448,0.10294117647058823
-0.1566654767570998,-0.8850638353309015,0.10294117647058823
-0.15646120894811993,-0.8862037519541428,0.10294117647058823
-0.15662382992225923,-0.8886789994788953,0.10294117647058823
-0.1562351261304141,-0.8926524231370505,0.10294117647058823
-0.1557730445819451,-0.8920661803022407,0.10294117647058823
-0.1554220212597176,-0.8914147993746743,0.10294117647058823
-0.1532643185784547,-0.8913170922355393,0.10294117647058823
-0.15128906869744566,-0.8909914017717562,0.10294117647058823
-0.14950618752974773,-0.8887767066180302,0.10294117647058823
-0.14745359352689197,-0.8940528921313184,0.10294117647058823
-0.14745359352689197,-0.8940528921313184,0.10294117647058823
-0.14854434396319213,-0.8940528921313184,0.10294117647058823
-0.1487307631286689,-0.8946717040125065,0.10294117647058823
-0.14904807234650166,-0.8939877540385618,0.10294117647058823
-0.14964302712993813,-0.8946065659197499,0.10294117647058823
-0.149428843407901,-0.8941505992704534,0.10294117647058823
-0.14986117721719816,-0.8964955706096925,0.10294117647058823
-0.15089838172298906,-0.8958441896821261,0.10294117647058823
-0.15112248135808345,-0.8930432516935904,0.10294117647058823
-0.1510411708710138,-0.8907959874934862,0.10294117647058823
-0.15072187847056956,-0.8907959874934862,0.10294117647058823
-0.15392471838806918,-0.8928152683689422,0.10294117647058823
-0.1546703950499762,-0.8909914017717562,0.10294117647058823
-0.15508686339838174,-0.8909588327253778,0.10294117647058823
-0.15653656988735523,-0.8906005732152162,0.10294117647058823
-0.15716920514040933,-0.8897863470557582,0.10294117647058823
-0.15647905759162303,-0.8896560708702449,0.10294117647058823
-0.1578296049500238,-0.8886464304325169,0.10294117647058823
-0.1574964302712994,-0.8888418447107869,0.10294117647058823
-0.15891638902110106,-0.8871156852527358,0.10294117647058823
-0.15743693479295573,-0.886431735278791,0.10294117647058823
-0.1565425194351896,-0.8849986972381448,0.10294117647058823
-0.1566654767570998,-0.8850638353309015,0.10294117647058823
-0.15646120894811993,-0.8862037519541428,0.10294117647058823
-0.15662382992225923,-0.8886789994788953,0.10294117647058823
-0.1562351261304141,-0.8926524231370505,0.10294117647058823
-0.1557730445819451,-0.8920661803022407,0.10294117647058823
-0.1554220212597176,-0.8914147993746743,0.10294117647058823
-0.1532643185784547,-0.8913170922355393,0.10294117647058823
-0.15128906869744566,-0.8909914017717562,0.10294117647058823
-0.14950618752974773,-0.8887767066180302,0.10294117647058823
-0.14745359352689197,-0.8940528921313184,0.10294117647058823
-0.14745359352689197,-0.8940528921313184,0.10294117647058823
-0.1495914643820403,-0.8971143824908807,0.10294117647058823
-0.15004164683484056,-0.8948019801980198,0.10294117647058823
-0.14864548627637633,-0.8909914017717562,0.10294117647058823
-0.14761224813580834,-0.8892326732673267,0.10294117647058823
-0.1472632079961923,-0.8874088066701407,0.10294117647058823
-0.1493058860859908,-0.8900794684731631,0.10294117647058823
-0.14965492622560686,-0.8903074517978113,0.10294117647058823
-0.15072782801840393,-0.8939226159458051,0.10294117647058823
-0.1513624464540695,-0.8940854611776967,0.10294117647058823
-0.15296287482151358,-0.8952579468473163,0.10294117647058823
-0.15374623195303824,-0.8967561229807192,0.10294117647058823
-0.15589798508646677,-0.8960396039603961,0.10294117647058823
-0.1566833254006029,-0.8927501302761855,0.10294117647058823
-0.15682611454862763,-0.8902748827514331,0.10294117647058823
-0.15739727114072663,-0.8899491922876498,0.10294117647058823
-0.1576987148976678,-0.8884184471078687,0.10294117647058823
-0.15945383150880532,-0.8879299114121939,0.10294117647058823
-0.15850983658575282,-0.8870179781136008,0.10294117647058823
-0.15915437093447565,-0.8868225638353309,0.10294117647058823
-0.15905124543868,-0.8883207399687337,0.10294117647058823
-0.15854751705537046,-0.8877019280875456,0.10294117647058823
-0.1569986514358242,-0.8901120375195414,0.10294117647058823
-0.15755592574964303,-0.8893955184992184,0.10294117647058823
-0.15851380295097572,-0.8906331422615946,0.10294117647058823
-0.15672497223544343,-0.8888092756644086,0.10294117647058823
-0.1559277328256386,-0.8878322042730589,0.10294117647058823
-0.15465452958908457,-0.8864643043251693,0.10294117647058823
-0.1554002062509916,-0.8842496091714435,0.10294117647058823
-0.1541607171188323,-0.8865620114643044,0.10294117647058823
-0.15312946216087578,-0.8892326732673267,0.10294117647058823
-0.15209225765508488,-0.8915450755601876,0.10294117647058823
-0.1508131048706965,-0.8904051589369463,0.10294117647058823
-0.14956171664286846,-0.8898189161021365,0.10294117647058823
-0.14896676185943203,-0.8857152162584679,0.10294117647058823
-0.14759439949230524,-0.8854872329338197,0.10294117647058823
-0.14781056639695384,-0.888353309015112,0.10294117647058823
-0.14947445660796446,-0.8935969254820219,0.10294117647058823
-0.15115024591464382,-0.8956813444502345,0.10294117647058823
-0.1514060764715215,-0.8976029181865555,0.10294117647058823
-0.1510510867840711,-0.893303804064617,0.10294117647058823
-0.15182651118514992,-0.8935969254820219,0.10294117647058823
-0.15243733142947802,-0.8929455445544554,0.10294117647058823
-0.15243534824686658,-0.8911542470036478,0.10294117647058823
-0.15414881802316358,-0.8937272016675352,0.10294117647058823
-0.1556758686339838,-0.8955184992183429,0.10294117647058823
-0.1581330318895764,-0.8939226159458051,0.10294117647058823
-0.15881722989052832,-0.8911216779572694,0.10294117647058823
-0.15846818975091226,-0.890177175612298,0.10294117647058823
-0.15925947961288275,-0.8888092756644086,0.10294117647058823
-0.15981080437886722,-0.8900143303804064,0.10294117647058823
-0.1579882595589402,-0.8895909327774882,0.10294117647058823
-0.15988219895287958,-0.8900794684731631,0.10294117647058823
-0.15953712517848642,-0.890372589890568,0.10294117647058823
-0.15924361415199112,-0.8868551328817093,0.10294117647058823
-0.15916032048231002,-0.8867899947889526,0.10294117647058823
-0.15840869427256862,-0.8890372589890568,0.10294117647058823
-0.15928922735205459,-0.8898840541948931,0.10294117647058823
-0.15875178486435032,-0.8930758207399687,0.10294117647058823
-0.15873195303823576,-0.8917404898384576,0.10294117647058823
-0.15943598286530225,-0.8916753517457009,0.10294117647058823
-0.15824607329842932,-0.8927175612298072,0.10294117647058823
-0.155096779311439,-0.8906657113079729,0.10294117647058823
-0.15492622560685387,-0.8926198540906722,0.10294117647058823
-0.15295295890845628,-0.8920336112558624,0.10294117647058823
-0.14956171664286846,-0.8898189161021365,0.10294117647058823
-0.14896676185943203,-0.8857152162584679,0.10294117647058823
-0.14759439949230524,-0.8854872329338197,0.10294117647058823
-0.14781056639695384,-0.888353309015112,0.10294117647058823
-0.14947445660796446,-0.8935969254820219,0.10294117647058823
-0.15115024591464382,-0.8956813444502345,0.10294117647058823
-0.1514060764715215,-0.8976029181865555,0.10294117647058823
-0.1510510867840711,-0.893303804064617,0.10294117647058823
-0.15182651118514992,-0.8935969254820219,0.10294117647058823
-0.15243733142947802,-0.8929455445544554,0.10294117647058823
-0.15243534824686658,-0.8911542470036478,0.10294117647058823
-0.15414881802316358,-0.8937272016675352,0.10294117647058823
-0.1556758686339838,-0.8955184992183429,0.10294117647058823
-0.1581330318895764,-0.8939226159458051,0.10294117647058823
-0.15881722989052832,-0.8911216779572694,0.10294117647058823
-0.15846818975091226,-0.890177175612298,0.10294117647058823
-0.15925947961288275,-0.8888092756644086,0.10294117647058823
-0.15981080437886722,-0.8900143303804064,0.10294117647058823
-0.1579882595589402,-0.8895909327774882,0.10294117647058823
-0.15988219895287958,-0.8900794684731631,0.10294117647058823
-0.15953712517848642,-0.890372589890568,0.10294117647058823
-0.15924361415199112,-0.8868551328817093,0.10294117647058823
-0.15916032048231002,-0.8867899947889526,0.10294117647058823
-0.15840869427256862,-0.8890372589890568,0.10294117647058823
-0.15928922735205459,-0.8898840541948931,0.10294117647058823
-0.15875178486435032,-0.8930758207399687,0.10294117647058823
-0.15873195303823576,-0.8917404898384576,0.10294117647058823
-0.15943598286530225,-0.8916753517457009,0.10294117647058823
-0.15824607329842932,-0.8927175612298072,0.10294117647058823
-0.155096779311439,-0.8906657113079729,0.10294117647058823
-0.15492622560685387,-0.8926198540906722,0.10294117647058823
-0.15295295890845628,-0.8920336112558624,0.10294117647058823
-0.15300848802157702,-0.891382230328296,0.10294117647058823
-0.1510510867840711,-0.8931409588327254,0.10294117647058823
-0.1500178486435031,-0.8924570088587807,0.10294117647058823
-0.15122560685387912,-0.8925547159979156,0.10294117647058823
-0.14948040615579883,-0.8910239708181344,0.10294117647058823
-0.14967674123433286,-0.892196456487754,0.10294117647058823
-0.14955378391242266,-0.891186816050026,0.10294117647058823
-0.14966484213866413,-0.8892001042209484,0.10294117647058823
-0.14974218626051086,-0.8918707660239709,0.10294117647058823
-0.15074964302712993,-0.8918381969775925,0.10294117647058823
-0.1511601618277011,-0.8926849921834289,0.10294117647058823
-0.15196533396795178,-0.8930758207399687,0.10294117647058823
-0.1540595748056481,-0.8934340802501303,0.10294117647058823
-0.15293511026495318,-0.894313444502345,0.10294117647058823
-0.1550214183722037,-0.8910239708181344,0.10294117647058823
-0.15602292559098843,-0.893303804064617,0.10294117647058823
-0.15701451689671586,-0.8915125065138093,0.10294117647058823
-0.1584186101856259,-0.8912193850964044,0.10294117647058823
-0.15836308107250516,-0.8892652423137051,0.10294117647058823
-0.15883904489925432,-0.8907634184471078,0.10294117647058823
-0.16007853403141362,-0.890372589890568,0.10294117647058823
-0.1593943360304617,-0.8892326732673267,0.10294117647058823
-0.15952522608281772,-0.8871482542991141,0.10294117647058823
-0.15899174996033635,-0.8889721208963002,0.10294117647058823
-0.15965413295256228,-0.8872459614382491,0.10294117647058823
-0.15733182611454863,-0.8855849400729546,0.10294117647058823
-0.1556540536252578,-0.8853243877019281,0.10294117647058823
-0.1566872917658258,-0.8861386138613861,0.10294117647058823
-0.1565385530699667,-0.8907308494007296,0.10294117647058823
-0.15762930350626686,-0.8920661803022407,0.10294117647058823
-0.15664961129620816,-0.8929781136008338,0.10294117647058823
-0.15620736157385373,-0.8934992183428869,0.10294117647058823
-0.15417459939711248,-0.8919033350703491,0.10294117647058823
-0.15250277645565605,-0.8935969254820219,0.10294117647058823
-0.1504224178962399,-0.8925872850442939,0.10294117647058823
-0.15078335713152466,-0.8925221469515373,0.10294117647058823
-0.1515429160717119,-0.8931083897863471,0.10294117647058823
-0.15082500396636522,-0.8926849921834289,0.10294117647058823
-0.15012692368713312,-0.8922290255341324,0.10294117647058823
-0.15057710613993336,-0.8947694111516414,0.10294117647058823
-0.14866333491987943,-0.8925547159979156,0.10294117647058823
-0.14983539584324926,-0.8917404898384576,0.10294117647058823
-0.14919086149452643,-0.892294163626889,0.10294117647058823
-0.1492444074250357,-0.8937272016675352,0.10294117647058823
-0.15140805965413295,-0.8930106826472121,0.10294117647058823
-0.1514854037759797,-0.8885812923397602,0.10294117647058823
-0.15221719815960655,-0.8912845231891611,0.10294117647058823
-0.15267531334285261,-0.8905354351224596,0.10294117647058823
-0.15417658257972394,-0.8918056279312142,0.10294117647058823
-0.15594161510391877,-0.8896886399166233,0.10294117647058823
-0.1558345232429002,-0.8907959874934862,0.10294117647058823
-0.157381405679835,-0.8889395518499218,0.10294117647058823
-0.1581508805330795,-0.8892001042209484,0.10294117647058823
-0.15951531016976042,-0.8890372589890568,0.10294117647058823
-0.1603998096144693,-0.889460656591975,0.10294117647058823
-0.16012414723147708,-0.8870831162063575,0.10294117647058823
-0.15964818340472792,-0.8899491922876498,0.10294117647058823
-0.1598683166745994,-0.8917404898384576,0.10294117647058823
-0.15879541488180232,-0.891186816050026,0.10294117647058823
-0.15835118197683642,-0.8926524231370505,0.10294117647058823
-0.15873591940345866,-0.8934340802501303,0.10294117647058823
-0.1577066476281136,-0.8921313183949974,0.10294117647058823
-0.15695303823576076,-0.8922290255341324,0.10294117647058823
-0.15742305251467556,-0.893206096925482,0.10294117647058823
-0.15547556719022687,-0.8942808754559667,0.10294117647058823
-0.15444431223227034,-0.8941505992704534,0.10294117647058823
-0.15221918134221799,-0.8949973944762898,0.10294117647058823
-0.15110463271458036,-0.8946717040125065,0.10294117647058823
-0.1496965730604474,-0.892391870766024,0.10294117647058823
-0.15003371410439473,-0.8926198540906722,0.10294117647058823
-0.14845906711089957,-0.8930758207399687,0.10294117647058823
-0.14940901158178646,-0.8931083897863471,0.10294117647058823
-0.14805449785816277,-0.891382230328296,0.10294117647058823
-0.14807036331905443,-0.8913496612819176,0.10294117647058823
-0.14857012533714103,-0.890568004168838,0.10294117647058823
-0.1481635729017928,-0.8921313183949974,0.10294117647058823
-0.14883388862446453,-0.8920336112558624,0.10294117647058823
-0.1491650801205775,-0.8907959874934862,0.10294117647058823
-0.1502558305568777,-0.8916427826993225,0.10294117647058823
-0.15288751388227828,-0.8940203230849401,0.10294117647058823
-0.15294304299539901,-0.8937597707139135,0.10294117647058823
-0.1547755037283833,-0.8928804064616988,0.10294117647058823
-0.1550134856417579,-0.8915125065138093,0.10294117647058823
-0.15490639378073934,-0.8894280875455967,0.10294117647058823
-0.1572981120101539,-0.886627149557061,0.10294117647058823
-0.15679636680945583,-0.8879299114121939,0.10294117647058823
-0.15771458035855943,-0.8891023970818135,0.10294117647058823
-0.15888664128192925,-0.8887441375716519,0.10294117647058823
-0.15955100745676662,-0.8864643043251693,0.10294117647058823
-0.15704624781849913,-0.8872459614382491,0.10294117647058823
-0.1580358559416151,-0.8892978113600833,0.10294117647058823
-0.15736950658416626,-0.8889395518499218,0.10294117647058823
-0.15653260352213233,-0.8865620114643044,0.10294117647058823
-0.15567785181659527,-0.8886464304325169,0.10294117647058823
-0.15599912739965097,-0.8912845231891611,0.10294117647058823
-0.15603879105188007,-0.8926198540906722,0.10294117647058823
-0.15668927494843726,-0.8930758207399687,0.10294117647058823
-0.1548905283198477,-0.8940528921313184,0.10294117647058823
-0.15336149452641598,-0.892294163626889,0.10294117647058823
-0.15112843090591782,-0.8900468994267848,0.10294117647058823
-0.15162224337617008,-0.8906657113079729,0.10294117647058823
-0.14974416944312233,-0.8930432516935904,0.10294117647058823
-0.15250475963826748,-0.8930758207399687,0.10294117647058823
-0.1515290337934317,-0.8960721730067743,0.10294117647058823
-0.15133864826273202,-0.895941896821261,0.10294117647058823
-0.1494466920514041,-0.8957139134966128,0.10294117647058823
-0.1480009519276535,-0.893401511203752,0.10294117647058823
-0.14784626368396,-0.8919033350703491,0.10294117647058823
-0.1477411550055529,-0.8911216779572694,0.10294117647058823
-0.1495438679993654,-0.8911216779572694,0.10294117647058823
-0.1495339520863081,-0.8908611255862429,0.10294117647058823
-0.1488537204505791,-0.8890372589890568,0.10294117647058823
-0.14987902586070126,-0.8858129233976029,0.10294117647058823
-0.1491392987466286,-0.8826862949452841,0.10294117647058823
-0.14996430271299382,-0.8814812402292861,0.10294117647058823
-0.15196533396795178,-0.8857477853048463,0.10294117647058823
-0.15575916230366493,-0.8891349661281918,0.10294117647058823
-0.15943399968269079,-0.8960396039603961,0.10294117647058823
-0.163005711565921,-0.9003712871287128,0.10294117647058823
-0.16339441535776614,-0.8993290776446066,0.10294117647058823
-0.16399531968903697,-0.8950951016154247,0.10294117647058823
-0.1625575122957322,-0.8946391349661282,0.10294117647058823
-0.1621926066952245,-0.8920661803022407,0.10294117647058823
-0.1607072029192448,-0.8900794684731631,0.10294117647058823
-0.15946573060447405,-0.8863665971860344,0.10294117647058823
-0.15900959860383945,-0.8869854090672226,0.10294117647058823
-0.15763921941932413,-0.8869854090672226,0.10294117647058823
-0.1588886244645407,-0.8876042209484106,0.10294117647058823
-0.15668927494843726,-0.8930758207399687,0.10294117647058823
-0.1548905283198477,-0.8940528921313184,0.10294117647058823
-0.15336149452641598,-0.892294163626889,0.10294117647058823
-0.15112843090591782,-0.8900468994267848,0.10294117647058823
-0.15162224337617008,-0.8906657113079729,0.10294117647058823
-0.14974416944312233,-0.8930432516935904,0.10294117647058823
-0.15250475963826748,-0.8930758207399687,0.10294117647058823
-0.1515290337934317,-0.8960721730067743,0.10294117647058823
-0.15133864826273202,-0.895941896821261,0.10294117647058823
-0.1494466920514041,-0.8957139134966128,0.10294117647058823
-0.1480009519276535,-0.893401511203752,0.10294117647058823
-0.14784626368396,-0.8919033350703491,0.10294117647058823
-0.1477411550055529,-0.8911216779572694,0.10294117647058823
-0.1495438679993654,-0.8911216779572694,0.10294117647058823
-0.1495339520863081,-0.8908611255862429,0.10294117647058823
-0.1488537204505791,-0.8890372589890568,0.10294117647058823
-0.14987902586070126,-0.8858129233976029,0.10294117647058823
-0.1491392987466286,-0.8826862949452841,0.10294117647058823
-0.14996430271299382,-0.8814812402292861,0.10294117647058823
-0.15196533396795178,-0.8857477853048463,0.10294117647058823
-0.15575916230366493,-0.8891349661281918,0.10294117647058823
-0.15943399968269079,-0.8960396039603961,0.10294117647058823
-0.163005711565921,-0.9003712871287128,0.10294117647058823
-0.16339441535776614,-0.8993290776446066,0.10294117647058823
-0.16399531968903697,-0.8950951016154247,0.10294117647058823
-0.1625575122957322,-0.8946391349661282,0.10294117647058823
-0.1621926066952245,-0.8920661803022407,0.10294117647058823
-0.1607072029192448,-0.8900794684731631,0.10294117647058823
-0.15946573060447405,-0.8863665971860344,0.10294117647058823
-0.15900959860383945,-0.8869854090672226,0.10294117647058823
-0.15763921941932413,-0.8869854090672226,0.10294117647058823
-0.1588886244645407,-0.8876042209484106,0.10294117647058823
-0.15668927494843726,-0.8930758207399687,0.10294117647058823
-0.1548905283198477,-0.8940528921313184,0.10294117647058823
-0.15336149452641598,-0.892294163626889,0.10294117647058823
-0.15112843090591782,-0.8900468994267848,0.10294117647058823
-0.15162224337617008,-0.8906657113079729,0.10294117647058823
-0.14974416944312233,-0.8930432516935904,0.10294117647058823
-0.15250475963826748,-0.8930758207399687,0.10294117647058823
-0.1515290337934317,-0.8960721730067743,0.10294117647058823
-0.15133864826273202,-0.895941896821261,0.10294117647058823
-0.1494466920514041,-0.8957139134966128,0.10294117647058823
-0.1480009519276535,-0.893401511203752,0.10294117647058823
-0.14784626368396,-0.8919033350703491,0.10294117647058823
-0.1477411550055529,-0.8911216779572694,0.10294117647058823
-0.1495438679993654,-0.8911216779572694,0.10294117647058823
-0.1495339520863081,-0.8908611255862429,0.10294117647058823
-0.1488537204505791,-0.8890372589890568,0.10294117647058823
-0.14987902586070126,-0.8858129233976029,0.10294117647058823
-0.1491392987466286,-0.8826862949452841,0.10294117647058823
-0.14996430271299382,-0.8814812402292861,0.10294117647058823
-0.15196533396795178,-0.8857477853048463,0.10294117647058823
-0.15575916230366493,-0.8891349661281918,0.10294117647058823
-0.15943399968269079,-0.8960396039603961,0.10294117647058823
-0.163005711565921,-0.9003712871287128,0.10294117647058823
-0.16339441535776614,-0.8993290776446066,0.10294117647058823
-0.16399531968903697,-0.8950951016154247,0.10294117647058823
-0.1625575122957322,-0.8946391349661282,0.10294117647058823
-0.1621926066952245,-0.8920661803022407,0.10294117647058823
-0.1607072029192448,-0.8900794684731631,0.10294117647058823
-0.15946573060447405,-0.8863665971860344,0.10294117647058823
-0.15900959860383945,-0.8869854090672226,0.10294117647058823
-0.15763921941932413,-0.8869854090672226,0.10294117647058823
-0.1588886244645407,-0.8876042209484106,0.10294117647058823
-0.1569153577661431,-0.8851289734236581,0.10294117647058823
-0.1569470886879264,-0.8872785304846275,0.10294117647058823
-0.15506703157226717,-0.8898840541948931,0.10294117647058823
-0.1539405838489608,-0.8945739968733716,0.10294117647058823
-0.15579684277328257,-0.8981891610213653,0.10294117647058823
-0.1562569411391401,-0.8965607087024492,0.10294117647058823
-0.15300253847374265,-0.8962024491922876,0.10294117647058823
-0.15125138822782802,-0.8950299635226681,0.10294117647058823
-0.1507159289227352,-0.8939551849921834,0.10294117647058823
-0.14840750436300174,-0.8955510682647212,0.10294117647058823
-0.14916309693796606,-0.8928152683689422,0.10294117647058823
-0.1499920672695542,-0.8934666492965087,0.10294117647058823
-0.14856615897191813,-0.8939551849921834,0.10294117647058823
-0.1495656830080914,-0.8945739968733716,0.10294117647058823
-0.1506068538791052,-0.8945739968733716,0.10294117647058823
-0.1505453752181501,-0.8934992183428869,0.10294117647058823
-0.15232825638584802,-0.8911216779572694,0.10294117647058823
-0.15381960970966208,-0.8937597707139135,0.10294117647058823
-0.15285379977788355,-0.894118030224075,0.10294117647058823
-0.15550729811201017,-0.8938574778530485,0.10294117647058823
-0.15559059178169127,-0.8938900468994267,0.10294117647058823
-0.156744804061558,-0.893303804064617,0.10294117647058823
-0.15654846898302396,-0.8922290255341324,0.10294117647058823
-0.15828970331588132,-0.8911216779572694,0.10294117647058823
-0.15858321434237665,-0.88916753517457,0.10294117647058823
-0.15855743296842773,-0.8878322042730589,0.10294117647058823
-0.15814294780263366,-0.8878647733194373,0.10294117647058823
-0.1590254640647311,-0.8895257946847316,0.10294117647058823
-0.1588192130731398,-0.8893303804064617,0.10294117647058823
-0.15906314453434872,-0.8900143303804064,0.10294117647058823
-0.16174044105981278,-0.8915450755601876,0.10294117647058823
-0.16162739965095985,-0.8898840541948931,0.10294117647058823
-0.15887275900364906,-0.8900794684731631,0.10294117647058823
-0.15885292717753452,-0.8906005732152162,0.10294117647058823
-0.15636998254799303,-0.8898514851485149,0.10294117647058823
-0.15781572267174362,-0.8917730588848358,0.10294117647058823
-0.15421624623195304,-0.8933363731109953,0.10294117647058823
-0.15293114389973028,-0.894313444502345,0.10294117647058823
-0.153383309535142,-0.8951928087545596,0.10294117647058823
-0.15144970648897352,-0.893206096925482,0.10294117647058823
-0.15056124067904172,-0.8933363731109953,0.10294117647058823
-0.1496350943994923,-0.8938249088066701,0.10294117647058823
-0.1492007774075837,-0.895225377800938,0.10294117647058823
-0.1494427256861812,-0.8954533611255863,0.10294117647058823
-0.1486375535459305,-0.8957464825429912,0.10294117647058823
-0.1489588291289862,-0.895127670661803,0.10294117647058823
-0.14849873076312867,-0.892391870766024,0.10294117647058823
-0.14941297794700936,-0.8937597707139135,0.10294117647058823
-0.1499960336347771,-0.89421573736321,0.10294117647058823
-0.1503906869744566,-0.8923267326732673,0.10294117647058823
-0.1515508488021577,-0.8935969254820219,0.10294117647058823
-0.15258012057750278,-0.8935643564356436,0.10294117647058823
-0.15270109471680152,-0.8948345492443981,0.10294117647058823
-0.15460693320640964,-0.8930432516935904,0.10294117647058823
-0.1561994288434079,-0.8914473684210527,0.10294117647058823
-0.15669720767888307,-0.8920010422094841,0.10294117647058823
-0.15801602411550056,-0.8906331422615946,0.10294117647058823
-0.15933087418689512,-0.8905354351224596,0.10294117647058823
-0.1592178327780422,-0.8910239708181344,0.10294117647058823
-0.16079644613676028,-0.8887115685252736,0.10294117647058823
-0.16053069966682532,-0.8906331422615946,0.10294117647058823
-0.16002895446612725,-0.8890046899426784,0.10294117647058823
-0.15914048865619546,-0.8888092756644086,0.10294117647058823
-0.16035617959701728,-0.8903400208441897,0.10294117647058823
-0.1588053307948596,-0.8907959874934862,0.10294117647058823
-0.15823219102014913,-0.8883858780614904,0.10294117647058823
-0.15755989211486593,-0.891186816050026,0.10294117647058823
-0.1572108519752499,-0.8902423137050547,0.10294117647058823
-0.1566218467396478,-0.8921638874413758,0.10294117647058823
-0.15456330318895764,-0.8897212089630016,0.10294117647058823
-0.15432135491036014,-0.8934666492965087,0.10294117647058823
-0.15246311280342695,-0.892196456487754,0.10294117647058823
-0.15178288116769792,-0.8924895779051589,0.10294117647058823
-0.15007139457401236,-0.8933689421573736,0.10294117647058823
-0.1497144217039505,-0.8940528921313184,0.10294117647058823
-0.14994645406949073,-0.8912519541427827,0.10294117647058823
-0.14925630652070443,-0.8937923397602918,0.10294117647058823
-0.14859987307631287,-0.8927501302761855,0.10294117647058823
-0.14919284467713786,-0.8935643564356436,0.10294117647058823
-0.14787204505790894,-0.8940854611776967,0.10294117647058823
-0.1491254164683484,-0.8950299635226681,0.10294117647058823
-0.15059892114865936,-0.8935317873892652,0.10294117647058823
-0.15146953831508805,-0.8935969254820219,0.10294117647058823
-0.15201491353323815,-0.893206096925482,0.10294117647058823
-0.15270704426463588,-0.8931083897863471,0.10294117647058823
-0.15214183722037125,-0.8921313183949974,0.10294117647058823
-0.15425789306679358,-0.8927826993225638,0.10294117647058823
-0.15561637315564017,-0.8927175612298072,0.10294117647058823
-0.1555529113120736,-0.8913496612819176,0.10294117647058823
-0.1569153577661431,-0.891186816050026,0.10294117647058823
-0.15765508488021576,-0.8888744137571651,0.10294117647058823
-0.1573417420276059,-0.8887115685252736,0.10294117647058823
-0.15985443439631922,-0.8896560708702449,0.10294117647058823
-0.16131603998096145,-0.8880276185513288,0.10294117647058823
-0.16015587815326035,-0.8879950495049505,0.10294117647058823
-0.15879739806441376,-0.8867248566961959,0.10294117647058823
-0.1588053307948596,-0.8907959874934862,0.10294117647058823
-0.15823219102014913,-0.8883858780614904,0.10294117647058823
-0.15755989211486593,-0.891186816050026,0.10294117647058823
-0.1572108519752499,-0.8902423137050547,0.10294117647058823
-0.1566218467396478,-0.8921638874413758,0.10294117647058823
-0.15456330318895764,-0.8897212089630016,0.10294117647058823
-0.15432135491036014,-0.8934666492965087,0.10294117647058823
-0.15246311280342695,-0.892196456487754,0.10294117647058823
-0.15178288116769792,-0.8924895779051589,0.10294117647058823
-0.15007139457401236,-0.8933689421573736,0.10294117647058823
-0.1497144217039505,-0.8940528921313184,0.10294117647058823
-0.14994645406949073,-0.8912519541427827,0.10294117647058823
-0.14925630652070443,-0.8937923397602918,0.10294117647058823
-0.14859987307631287,-0.8927501302761855,0.10294117647058823
-0.14919284467713786,-0.8935643564356436,0.10294117647058823
-0.14787204505790894,-0.8940854611776967,0.10294117647058823
-0.1491254164683484,-0.8950299635226681,0.10294117647058823
-0.15059892114865936,-0.8935317873892652,0.10294117647058823
-0.15146953831508805,-0.8935969254820219,0.10294117647058823
-0.15201491353323815,-0.893206096925482,0.10294117647058823
-0.15270704426463588,-0.8931083897863471,0.10294117647058823
-0.15214183722037125,-0.8921313183949974,0.10294117647058823
-0.15425789306679358,-0.8927826993225638,0.10294117647058823
-0.15561637315564017,-0.8927175612298072,0.10294117647058823
-0.1555529113120736,-0.8913496612819176,0.10294117647058823
-0.1569153577661431,-0.891186816050026,0.10294117647058823
-0.15765508488021576,-0.8888744137571651,0.10294117647058823
-0.1573417420276059,-0.8887115685252736,0.10294117647058823
-0.15985443439631922,-0.8896560708702449,0.10294117647058823
-0.16131603998096145,-0.8880276185513288,0.10294117647058823
-0.16015587815326035,-0.8879950495049505,0.10294117647058823
-0.15879739806441376,-0.8867248566961959,0.10294117647058823
-0.1580100745676662,-0.8831748306409588,0.10294117647058823
-0.15649492305251467,-0.8808949973944763,0.10294117647058823
-0.1549817547199746,-0.881578947368421,0.10294117647058823
-0.15479533555449787,-0.8846404377279833,0.10294117647058823
-0.1539842138664128,-0.8880601875977071,0.10294117647058823
-0.1547318737109313,-0.8909262636789995,0.10294117647058823
-0.15406949071870538,-0.8900794684731631,0.10294117647058823
-0.15208829128986198,-0.8901120375195414,0.10294117647058823
-0.1507258448357925,-0.8914147993746743,0.10294117647058823
-0.14800690147548787,-0.8933689421573736,0.10294117647058823
-0.14821711883230207,-0.8971795205836373,0.10294117647058823
-0.14928605425987626,-0.8991336633663366,0.10294117647058823
-0.15177296525464065,-0.9003061490359562,0.10294117647058823
-0.15182452800253848,-0.899785044293903,0.10294117647058823
-0.1515865460891639,-0.8951928087545596,0.10294117647058823
-0.14984729493891796,-0.8916427826993225,0.10294117647058823
-0.14766381088370617,-0.8909588327253778,0.10294117647058823
-0.14614469300333174,-0.8892978113600833,0.10294117647058823
-0.14740599714421704,-0.8882881709223553,0.10294117647058823
-0.14949627161669046,-0.893401511203752,0.10294117647058823
-0.15182651118514992,-0.896235018238666,0.10294117647058823
-0.15294304299539901,-0.8974726420010423,0.10294117647058823
-0.15339520863081071,-0.8947368421052632,0.10294117647058823
-0.1563362684435983,-0.8942808754559667,0.10294117647058823
-0.15634221799143266,-0.8935317873892652,0.10294117647058823
-0.1574567666190703,-0.8929781136008338,0.10294117647058823
-0.15774036173250833,-0.895941896821261,0.10294117647058823
-0.15948556243058862,-0.8937597707139135,0.10294117647058823
-0.16060209424083768,-0.8935969254820219,0.10294117647058823
-0.15995359352689195,-0.8913170922355393,0.10294117647058823
-0.16021339044899255,-0.8884835852006253,0.10294117647058823
-0.15996945898778359,-0.8871482542991141,0.10294117647058823
-0.16094518483261938,-0.8864968733715477,0.10294117647058823
-0.15946969696969698,-0.8836959353830119,0.10294117647058823
-0.16010629858797398,-0.8855523710265764,0.10294117647058823
-0.1575836903062034,-0.8840541948931735,0.10294117647058823
-0.1557472632079962,-0.885422094841063,0.10294117647058823
-0.15459305092812947,-0.8826211568525274,0.10294117647058823
-0.1532643185784547,-0.882588587806149,0.10294117647058823
-0.15414881802316358,-0.8844775924960917,0.10294117647058823
-0.15297279073457085,-0.8906005732152162,0.10294117647058823
-0.15339520863081071,-0.8938574778530485,0.10294117647058823
-0.15303625257813738,-0.8943460135487233,0.10294117647058823
-0.15301047120418848,-0.8925547159979156,0.10294117647058823
-0.1514021101062986,-0.8943460135487233,0.10294117647058823
-0.15100349040139616,-0.8945414278269932,0.10294117647058823
-0.15063660161827702,-0.8900468994267848,0.10294117647058823
-0.1486197049024274,-0.8923593017196456,0.10294117647058823
-0.1470867047437728,-0.8929781136008338,0.10294117647058823
-0.148264715214977,-0.894313444502345,0.10294117647058823
-0.1509360621926067,-0.8961047420531527,0.10294117647058823
-0.15141599238457878,-0.8968538301198541,0.10294117647058823
-0.15182651118514992,-0.896235018238666,0.10294117647058823
-0.15268324607329842,-0.8969841063053674,0.10294117647058823
-0.15284190068221482,-0.8913496612819176,0.10294117647058823
-0.15212398857686815,-0.8898189161021365,0.10294117647058823
-0.15199904807234652,-0.8911542470036478,0.10294117647058823
-0.15392670157068064,-0.8903400208441897,0.10294117647058823
-0.154569252736792,-0.8909262636789995,0.10294117647058823
-0.15525146755513247,-0.8897863470557582,0.10294117647058823
-0.159029430429954,-0.8909588327253778,0.10294117647058823
-0.1612168808503887,-0.8911542470036478,0.10294117647058823
-0.16149056005076948,-0.8913170922355393,0.10294117647058823
-0.16189512930350627,-0.8918707660239709,0.10294117647058823
-0.16094518483261938,-0.8864968733715477,0.10294117647058823
-0.15946969696969698,-0.8836959353830119,0.10294117647058823
-0.16010629858797398,-0.8855523710265764,0.10294117647058823
-0.1575836903062034,-0.8840541948931735,0.10294117647058823
-0.1557472632079962,-0.885422094841063,0.10294117647058823
-0.15459305092812947,-0.8826211568525274,0.10294117647058823
-0.1532643185784547,-0.882588587806149,0.10294117647058823
-0.15414881802316358,-0.8844775924960917,0.10294117647058823
-0.15297279073457085,-0.8906005732152162,0.10294117647058823
-0.15339520863081071,-0.8938574778530485,0.10294117647058823
-0.15303625257813738,-0.8943460135487233,0.10294117647058823
-0.15301047120418848,-0.8925547159979156,0.10294117647058823
-0.1514021101062986,-0.8943460135487233,0.10294117647058823
-0.15100349040139616,-0.8945414278269932,0.10294117647058823
-0.15063660161827702,-0.8900468994267848,0.10294117647058823
-0.1486197049024274,-0.8923593017196456,0.10294117647058823
-0.1470867047437728,-0.8929781136008338,0.10294117647058823
-0.148264715214977,-0.894313444502345,0.10294117647058823
-0.1509360621926067,-0.8961047420531527,0.10294117647058823
-0.15141599238457878,-0.8968538301198541,0.10294117647058823
-0.15182651118514992,-0.896235018238666,0.10294117647058823
-0.15268324607329842,-0.8969841063053674,0.10294117647058823
-0.15284190068221482,-0.8913496612819176,0.10294117647058823
-0.15212398857686815,-0.8898189161021365,0.10294117647058823
-0.15199904807234652,-0.8911542470036478,0.10294117647058823
-0.15392670157068064,-0.8903400208441897,0.10294117647058823
-0.154569252736792,-0.8909262636789995,0.10294117647058823
-0.15525146755513247,-0.8897863470557582,0.10294117647058823
-0.159029430429954,-0.8909588327253778,0.10294117647058823
-0.1612168808503887,-0.8911542470036478,0.10294117647058823
-0.16149056005076948,-0.8913170922355393,0.10294117647058823
-0.16189512930350627,-0.8918707660239709,0.10294117647058823
-0.16159170236395368,-0.8924570088587807,0.10294117647058823
-0.16167896239885768,-0.8921638874413758,0.10294117647058823
-0.16216484213866414,-0.8900794684731631,0.10294117647058823
-0.16163929874662858,-0.88955836373111,0.10294117647058823
-0.16045930509281295,-0.8898189161021365,0.10294117647058823
-0.15973346025702045,-0.8896235018238666,0.10294117647058823
-0.1583095351419959,-0.8897863470557582,0.10294117647058823
-0.15745874980168173,-0.8903400208441897,0.10294117647058823
-0.15753411074091703,-0.8914147993746743,0.10294117647058823
-0.15407345708392828,-0.8918056279312142,0.10294117647058823
-0.15440068221481834,-0.8918381969775925,0.10294117647058823
-0.15404767570997938,-0.8915450755601876,0.10294117647058823
-0.15236395367285419,-0.8919359041167274,0.10294117647058823
-0.15017452006980803,-0.8939877540385618,0.10294117647058823
-0.14913731556401713,-0.8931409588327254,0.10294117647058823
-0.14960138029509756,-0.8954207920792079,0.10294117647058823
-0.14864548627637633,-0.8942483064095883,0.10294117647058823
-0.14886760272885927,-0.8954859301719645,0.10294117647058823
-0.15012097413929876,-0.8928804064616988,0.10294117647058823
-0.1496668253212756,-0.8930432516935904,0.10294117647058823
-0.1493673647469459,-0.8910891089108911,0.10294117647058823
-0.1493495161034428,-0.8910565398645127,0.10294117647058823
-0.1509320958273838,-0.8929781136008338,0.10294117647058823
-0.151055053149294,-0.8898840541948931,0.10294117647058823
-0.15161232746311282,-0.8905354351224596,0.10294117647058823
-0.1515429160717119,-0.8897212089630016,0.10294117647058823
-0.15442051404093288,-0.8887441375716519,0.10294117647058823
-0.15436895129303507,-0.8879950495049505,0.10294117647058823
-0.15477748691099477,-0.8867899947889526,0.10294117647058823
-0.15649095668729177,-0.8872785304846275,0.10294117647058823
-0.15645327621767413,-0.8871156852527358,0.10294117647058823
-0.15873591940345866,-0.8881253256904638,0.10294117647058823
-0.16082817705854355,-0.8892652423137051,0.10294117647058823
-0.16110582262414724,-0.8910239708181344,0.10294117647058823
-0.16051086784071078,-0.8912845231891611,0.10294117647058823
-0.15997739171822942,-0.8904377279833247,0.10294117647058823
-0.15976915754402665,-0.8893303804064617,0.10294117647058823
-0.16020149135332382,-0.8896235018238666,0.10294117647058823
-0.1592971600825004,-0.890177175612298,0.10294117647058823
-0.15872005394256702,-0.8925221469515373,0.10294117647058823
-0.15795057908932256,-0.8908611255862429,0.10294117647058823
-0.15819252736792003,-0.8918056279312142,0.10294117647058823
-0.1566258131048707,-0.8936946326211569,0.10294117647058823
-0.1559138505473584,-0.8943785825951016,0.10294117647058823
-0.1544324131366016,-0.8949322563835331,0.10294117647058823
-0.15332183087418688,-0.8948345492443981,0.10294117647058823
-0.1515072187847057,-0.8938900468994267,0.10294117647058823
-0.150527526574647,-0.8947694111516414,0.10294117647058823
-0.14982151356496906,-0.8937923397602918,0.10294117647058823
-0.14911153419006823,-0.8918707660239709,0.10294117647058823
-0.1491472314770744,-0.8933363731109953,0.10294117647058823
-0.14726915754402664,-0.8916427826993225,0.10294117647058823
-0.14824884975408537,-0.8918707660239709,0.10294117647058823
-0.1472453593526892,-0.891186816050026,0.10294117647058823
-0.14730287164842137,-0.8912519541427827,0.10294117647058823
-0.14879025860701253,-0.8908611255862429,0.10294117647058823
-0.1498115976519118,-0.8908285565398645,0.10294117647058823
-0.15189790575916232,-0.8931083897863471,0.10294117647058823
-0.15230644137712201,-0.88936294945284,0.10294117647058823
-0.15423409487545614,-0.8914799374674309,0.10294117647058823
-0.15525543392035537,-0.8926849921834289,0.10294117647058823
-0.1569946850706013,-0.8926849921834289,0.10294117647058823
-0.1572227510709186,-0.8886789994788953,0.10294117647058823
-0.15917618594320165,-0.8897863470557582,0.10294117647058823
-0.16082817705854355,-0.8892652423137051,0.10294117647058823
-0.16110582262414724,-0.8910239708181344,0.10294117647058823
-0.16051086784071078,-0.8912845231891611,0.10294117647058823
-0.15997739171822942,-0.8904377279833247,0.10294117647058823
-0.15976915754402665,-0.8893303804064617,0.10294117647058823
-0.16020149135332382,-0.8896235018238666,0.10294117647058823
-0.1592971600825004,-0.890177175612298,0.10294117647058823
-0.15872005394256702,-0.8925221469515373,0.10294117647058823
-0.15795057908932256,-0.8908611255862429,0.10294117647058823
-0.15819252736792003,-0.8918056279312142,0.10294117647058823
-0.1566258131048707,-0.8936946326211569,0.10294117647058823
-0.1559138505473584,-0.8943785825951016,0.10294117647058823
-0.1544324131366016,-0.8949322563835331,0.10294117647058823
-0.15332183087418688,-0.8948345492443981,0.10294117647058823
-0.1515072187847057,-0.8938900468994267,0.10294117647058823
-0.150527526574647,-0.8947694111516414,0.10294117647058823
-0.14982151356496906,-0.8937923397602918,0.10294117647058823
-0.14911153419006823,-0.8918707660239709,0.10294117647058823
-0.1491472314770744,-0.8933363731109953,0.10294117647058823
-0.14726915754402664,-0.8916427826993225,0.10294117647058823
-0.14824884975408537,-0.8918707660239709,0.10294117647058823
-0.1472453593526892,-0.891186816050026,0.10294117647058823
-0.14730287164842137,-0.8912519541427827,0.10294117647058823
-0.14879025860701253,-0.8908611255862429,0.10294117647058823
-0.1498115976519118,-0.8908285565398645,0.10294117647058823
-0.15189790575916232,-0.8931083897863471,0.10294117647058823
-0.15230644137712201,-0.88936294945284,0.10294117647058823
-0.15423409487545614,-0.8914799374674309,0.10294117647058823
-0.15525543392035537,-0.8926849921834289,0.10294117647058823
-0.1569946850706013,-0.8926849921834289,0.10294117647058823
-0.1572227510709186,-0.8886789994788953,0.10294117647058823
-0.15917618594320165,-0.8897863470557582,0.10294117647058823
-0.15980088846580992,-0.8896886399166233,0.10294117647058823
-0.15934673964778676,-0.8882230328295988,0.10294117647058823
-0.16068737109313025,-0.887441375716519,0.10294117647058823
-0.16055648104077425,-0.88916753517457,0.10294117647058823
-0.16113557036331905,-0.8896560708702449,0.10294117647058823
-0.16009836585752815,-0.8912519541427827,0.10294117647058823
-0.16042955735364112,-0.8914147993746743,0.10294117647058823
-0.16102451213707758,-0.8875716519020324,0.10294117647058823
-0.15850785340314136,-0.888451016154247,0.10294117647058823
-0.1581191496112962,-0.8920987493486191,0.10294117647058823
-0.15679438362684436,-0.8934992183428869,0.10294117647058823
-0.15817467872441696,-0.8944437206878583,0.10294117647058823
-0.15613993336506427,-0.8944111516414799,0.10294117647058823
-0.15349040139616055,-0.8891349661281918,0.10294117647058823
-0.149956369982548,-0.8895909327774882,0.10294117647058823
-0.14945264159923846,-0.8906982803543513,0.10294117647058823
-0.14759043312708234,-0.8908936946326211,0.10294117647058823
-0.14639457401237507,-0.8917730588848358,0.10294117647058823
-0.14552990639378074,-0.8948345492443981,0.10294117647058823
-0.14685268919562114,-0.8968863991662324,0.10294117647058823
-0.14840155481516737,-0.8964630015633143,0.10294117647058823
-0.14795335554497857,-0.8948671182907765,0.10294117647058823
-0.1481496906235126,-0.8938249088066701,0.10294117647058823
-0.14822306838013644,-0.8944437206878583,0.10294117647058823
-0.1487565445026178,-0.8942808754559667,0.10294117647058823
-0.1492186260510868,-0.8907959874934862,0.10294117647058823
-0.15210415675075362,-0.8912845231891611,0.10294117647058823
-0.15185824210693322,-0.8939226159458051,0.10294117647058823
-0.15385927336189117,-0.8961047420531527,0.10294117647058823
-0.15611018562589243,-0.8912519541427827,0.10294117647058823
-0.15624107567824846,-0.8881253256904638,0.10294117647058823
-0.1551225606853879,-0.8860409067222512,0.10294117647058823
-0.15865262573377756,-0.8833051068264721,0.10294117647058823
-0.15885491036014596,-0.886529442417926,0.10294117647058823
-0.15706806282722513,-0.8835005211047421,0.10294117647058823
-0.1588410280818658,-0.8840216258467952,0.10294117647058823
-0.1586645248294463,-0.886431735278791,0.10294117647058823
-0.15905917816912582,-0.885422094841063,0.10294117647058823
-0.1590552118039029,-0.8850964043772799,0.10294117647058823
-0.1580457718546724,-0.8847381448671183,0.10294117647058823
-0.15780580675868633,-0.8828817092235539,0.10294117647058823
-0.15714739013168333,-0.881969775924961,0.10294117647058823
-0.15671703950499763,-0.8839890568004168,0.10294117647058823
-0.1570343487228304,-0.8866922876498177,0.10294117647058823
-0.15586427098207203,-0.888451016154247,0.10294117647058823
-0.15374623195303824,-0.8892326732673267,0.10294117647058823
-0.15268324607329842,-0.8857477853048463,0.10294117647058823
-0.15215968586387435,-0.8862363210005211,0.10294117647058823
-0.15180271299381248,-0.8863014590932777,0.10294117647058823
-0.14819133745835317,-0.8869202709744659,0.10294117647058823
-0.14678526098683167,-0.8833702449192288,0.10294117647058823
-0.14584919879422498,-0.8859431995831162,0.10294117647058823
-0.14683087418689514,-0.8905028660760813,0.10294117647058823
-0.14893503093764873,-0.8896886399166233,0.10294117647058823
-0.14838172298905283,-0.887539082855654,0.10294117647058823
-0.1484491511978423,-0.8858780614903595,0.10294117647058823
-0.14819728700618753,-0.8887767066180302,0.10294117647058823
-0.1500356972870062,-0.8941831683168316,0.10294117647058823
-0.14970450579089323,-0.8964630015633143,0.10294117647058823
-0.15204664445502142,-0.898775403856175,0.10294117647058823
-0.15499762018086624,-0.8978634705575821,0.10294117647058823
-0.15318697445660798,-0.8970818134445023,0.10294117647058823
-0.15489251150245914,-0.8899166232412715,0.10294117647058823
-0.15547160082500397,-0.8865945805106826,0.10294117647058823
-0.15865262573377756,-0.8833051068264721,0.10294117647058823
-0.15885491036014596,-0.886529442417926,0.10294117647058823
-0.15706806282722513,-0.8835005211047421,0.10294117647058823
-0.1588410280818658,-0.8840216258467952,0.10294117647058823
-0.1586645248294463,-0.886431735278791,0.10294117647058823
-0.15905917816912582,-0.885422094841063,0.10294117647058823
-0.1590552118039029,-0.8850964043772799,0.10294117647058823
-0.1580457718546724,-0.8847381448671183,0.10294117647058823
-0.15780580675868633,-0.8828817092235539,0.10294117647058823
-0.15714739013168333,-0.881969775924961,0.10294117647058823
-0.15671703950499763,-0.8839890568004168,0.10294117647058823
-0.1570343487228304,-0.8866922876498177,0.10294117647058823
-0.15586427098207203,-0.888451016154247,0.10294117647058823
-0.15374623195303824,-0.8892326732673267,0.10294117647058823
-0.15268324607329842,-0.8857477853048463,0.10294117647058823
-0.15215968586387435,-0.8862363210005211,0.10294117647058823
-0.15180271299381248,-0.8863014590932777,0.10294117647058823
-0.14819133745835317,-0.8869202709744659,0.10294117647058823
-0.14678526098683167,-0.8833702449192288,0.10294117647058823
-0.14584919879422498,-0.8859431995831162,0.10294117647058823
-0.14683087418689514,-0.8905028660760813,0.10294117647058823
-0.14893503093764873,-0.8896886399166233,0.10294117647058823
-0.14838172298905283,-0.887539082855654,0.10294117647058823
-0.1484491511978423,-0.8858780614903595,0.10294117647058823
-0.14819728700618753,-0.8887767066180302,0.10294117647058823
-0.1500356972870062,-0.8941831683168316,0.10294117647058823
-0.14970450579089323,-0.8964630015633143,0.10294117647058823
-0.15204664445502142,-0.898775403856175,0.10294117647058823
-0.15499762018086624,-0.8978634705575821,0.10294117647058823
-0.15318697445660798,-0.8970818134445023,0.10294117647058823
-0.15489251150245914,-0.8899166232412715,0.10294117647058823
-0.15547160082500397,-0.8865945805106826,0.10294117647058823
-0.1546485800412502,-0.8889395518499218,0.10294117647058823
-0.15824210693320642,-0.8930758207399687,0.10294117647058823
-0.1587835157861336,-0.8947694111516414,0.10294117647058823
-0.16027090274472475,-0.8943785825951016,0.10294117647058823
-0.1607290179279708,-0.893303804064617,0.10294117647058823
-0.15928922735205459,-0.893401511203752,0.10294117647058823
-0.1616650801205775,-0.8936946326211569,0.10294117647058823
-0.1617563065207044,-0.8933689421573736,0.10294117647058823
-0.1621747580517214,-0.8935643564356436,0.10294117647058823
-0.1627716960177693,-0.8920987493486191,0.10294117647058823
-0.16082619387593208,-0.8917730588848358,0.10294117647058823
-0.1591742027605902,-0.8882556018759771,0.10294117647058823
-0.15692329049658893,-0.8889395518499218,0.10294117647058823
-0.15681619863557036,-0.8906331422615946,0.10294117647058823
-0.15741908614945263,-0.8890698280354351,0.10294117647058823
-0.15482310011105824,-0.890372589890568,0.10294117647058823
-0.15414485165794067,-0.8947368421052632,0.10294117647058823
-0.1540813898143741,-0.8936620635747785,0.10294117647058823
-0.15230247501189909,-0.8945414278269932,0.10294117647058823
-0.15169958749801682,-0.8942483064095883,0.10294117647058823
-0.15022608281770586,-0.8915125065138093,0.10294117647058823
-0.14950222116452483,-0.8920010422094841,0.10294117647058823
-0.14878629224178963,-0.892391870766024,0.10294117647058823
-0.14914921465968586,-0.8919033350703491,0.10294117647058823
-0.14965889259082976,-0.890177175612298,0.10294117647058823
-0.14874662858956053,-0.891382230328296,0.10294117647058823
-0.14799500237981913,-0.8898514851485149,0.10294117647058823
-0.14919086149452643,-0.8900794684731631,0.10294117647058823
-0.14954188481675393,-0.8899817613340282,0.10294117647058823
-0.15108876725368872,-0.8906331422615946,0.10294117647058823
-0.1507734412184674,-0.8902097446586764,0.10294117647058823
-0.15248096144693005,-0.8900468994267848,0.10294117647058823
-0.15226677772489292,-0.8881904637832204,0.10294117647058823
-0.15319689036966525,-0.8920010422094841,0.10294117647058823
-0.15449984134539108,-0.8899166232412715,0.10294117647058823
-0.15809931778518166,-0.887343668577384,0.10294117647058823
-0.15953117563065208,-0.8874088066701407,0.10294117647058823
-0.15968189750912265,-0.8906982803543513,0.10294117647058823
-0.16251586546089164,-0.8932386659718603,0.10294117647058823
-0.1619189274948437,-0.8959744658676394,0.10294117647058823
-0.1620339520863081,-0.89421573736321,0.10294117647058823
-0.1619685070601301,-0.8919359041167274,0.10294117647058823
-0.15910082500396636,-0.8912193850964044,0.10294117647058823
-0.16050491829287641,-0.8927175612298072,0.10294117647058823
-0.15864469300333175,-0.8927501302761855,0.10294117647058823
-0.15864072663810883,-0.8936620635747785,0.10294117647058823
-0.1578910836109789,-0.8928804064616988,0.10294117647058823
-0.1567051404093289,-0.8931409588327254,0.10294117647058823
-0.15491432651118514,-0.8917730588848358,0.10294117647058823
-0.15452165635411708,-0.8920010422094841,0.10294117647058823
-0.1527149769950817,-0.8928804064616988,0.10294117647058823
-0.15229454228145328,-0.8945088587806149,0.10294117647058823
-0.15189988894177375,-0.8919684731631058,0.10294117647058823
-0.15025186419165476,-0.8930758207399687,0.10294117647058823
-0.14991868951293036,-0.8925872850442939,0.10294117647058823
-0.149869109947644,-0.8920987493486191,0.10294117647058823
-0.14894693003331747,-0.8920661803022407,0.10294117647058823
-0.14890528319847693,-0.8914473684210527,0.10294117647058823
-0.1492186260510868,-0.8936946326211569,0.10294117647058823
-0.14929200380771063,-0.8934992183428869,0.10294117647058823
-0.15096184356655562,-0.8940528921313184,0.10294117647058823
-0.15067031572267175,-0.8925872850442939,0.10294117647058823
-0.15261383468189751,-0.8930432516935904,0.10294117647058823
-0.15262176741234332,-0.8918056279312142,0.10294117647058823
-0.15200896398540378,-0.8902748827514331,0.10294117647058823
-0.15477352054577184,-0.8908936946326211,0.10294117647058823
-0.1552812152943043,-0.8898514851485149,0.10294117647058823
-0.156348167539267,-0.8880601875977071,0.10294117647058823
-0.1576193875932096,-0.8884184471078687,0.10294117647058823
-0.15999920672695542,-0.8902097446586764,0.10294117647058823
-0.1590036490560051,-0.891577644606566,0.10294117647058823
-0.15980882119625575,-0.8892652423137051,0.10294117647058823
-0.15842059336823736,-0.8880927566440855,0.10294117647058823
-0.15880334761224812,-0.888548723293382,0.10294117647058823
-0.1588449944470887,-0.8856826472120897,0.10294117647058823
-0.15745874980168173,-0.8863991662324127,0.10294117647058823
-0.15679041726162146,-0.8853243877019281,0.10294117647058823
-0.15588608599079803,-0.8885161542470037,0.10294117647058823
-0.15628867206092337,-0.888353309015112,0.10294117647058823
-0.15542400444232904,-0.8903400208441897,0.10294117647058823
-0.15425392670157068,-0.8878973423658155,0.10294117647058823
-0.15288751388227828,-0.8901120375195414,0.10294117647058823
-0.15337141043947328,-0.8923267326732673,0.10294117647058823
-0.15432532127558304,-0.8923593017196456,0.10294117647058823
-0.15428169125813104,-0.893303804064617,0.10294117647058823
-0.15091623036649215,-0.8912845231891611,0.10294117647058823
-0.1496172457559892,-0.8927826993225638,0.10294117647058823
-0.1506901475487863,-0.8937272016675352,0.10294117647058823
-0.14880810725051563,-0.8916102136529442,0.10294117647058823
-0.14795335554497857,-0.8857477853048463,0.10294117647058823
-0.1469062351261304,-0.8818720687858259,0.10294117647058823
-0.14497659844518485,-0.8855523710265764,0.10294117647058823
-0.14647786768205617,-0.8895909327774882,0.10294117647058823
-0.1500535459305093,-0.8931735278791036,0.10294117647058823
-0.15149730287164842,-0.8918707660239709,0.10294117647058823
-0.15278835475170555,-0.8926198540906722,0.10294117647058823
-0.1537521815008726,-0.8927501302761855,0.10294117647058823
-0.15247501189909568,-0.892294163626889,0.10294117647058823
-0.15290337934316992,-0.8880601875977071,0.10294117647058823
-0.15274075836903062,-0.8858454924439813,0.10294117647058823
-0.15355782960495,-0.8862363210005211,0.10294117647058823
-0.15523560209424084,-0.8925547159979156,0.10294117647058823
-0.16000912264001269,-0.8983845752996352,0.10294117647058823
-0.16290655243534824,-0.8987102657634184,0.10294117647058823
-0.16275186419165477,-0.8942808754559667,0.10294117647058823
-0.16201412026019354,-0.8894280875455967,0.10294117647058823
-0.16192686022528954,-0.8868225638353309,0.10294117647058823
-0.1595430747263208,-0.8926198540906722,0.10294117647058823
-0.16012811359669998,-0.8943460135487233,0.10294117647058823
-0.15945184832619388,-0.8929455445544554,0.10294117647058823
-0.16022132317943835,-0.8929781136008338,0.10294117647058823
-0.15959662065683008,-0.8930432516935904,0.10294117647058823
-0.15906314453434872,-0.8945414278269932,0.10294117647058823
-0.15712557512295733,-0.8916753517457009,0.10294117647058823
-0.1562351261304141,-0.8920661803022407,0.10294117647058823
-0.15411113755354594,-0.8904051589369463,0.10294117647058823
-0.15253847374266222,-0.8895909327774882,0.10294117647058823
-0.15270109471680152,-0.8919684731631058,0.10294117647058823
-0.15225487862922418,-0.8923267326732673,0.10294117647058823
-0.15104315405362526,-0.8940203230849401,0.10294117647058823
-0.15124940504521656,-0.8950951016154247,0.10294117647058823
-0.1510292717753451,-0.8948345492443981,0.10294117647058823
-0.14956171664286846,-0.8946391349661282,0.10294117647058823
-0.14854236078058067,-0.8930106826472121,0.10294117647058823
-0.14760233222275107,-0.8931409588327254,0.10294117647058823
-0.14791170871013803,-0.8906331422615946,0.10294117647058823
-0.14838568935427573,-0.8893955184992184,0.10294117647058823
-0.14870299857210853,-0.889460656591975,0.10294117647058823
-0.148857686815802,-0.8882230328295988,0.10294117647058823
-0.14957956528637156,-0.8856826472120897,0.10294117647058823
-0.15067428208789466,-0.8874088066701407,0.10294117647058823
-0.1531235126130414,-0.8877670661803022,0.10294117647058823
-0.1552594002855783,-0.8891349661281918,0.10294117647058823
-0.1568360304616849,-0.88955836373111,0.10294117647058823
-0.1557075995557671,-0.8888092756644086,0.10294117647058823
-0.1584324924639061,-0.8898514851485149,0.10294117647058823
-0.15903736316039982,-0.8895257946847316,0.10294117647058823
-0.15997144217039505,-0.8902748827514331,0.10294117647058823
-0.16003887037918452,-0.8896235018238666,0.10294117647058823
-0.15854950023798192,-0.8870831162063575,0.10294117647058823
-0.1574171029668412,-0.8874739447628973,0.10294117647058823
-0.1573556243058861,-0.8892652423137051,0.10294117647058823
-0.15877359987307632,-0.8910239708181344,0.10294117647058823
-0.15936260510867842,-0.8896235018238666,0.10294117647058823
-0.15730406155798826,-0.884607868681605,0.10294117647058823
-0.15614984927812153,-0.8840216258467952,0.10294117647058823
-0.15417658257972394,-0.8852266805627931,0.10294117647058823
-0.1558384896081231,-0.8844775924960917,0.10294117647058823
-0.15404965889259084,-0.8892326732673267,0.10294117647058823
-0.15369268602252895,-0.8915125065138093,0.10294117647058823
-0.1528954466127241,-0.8942483064095883,0.10294117647058823
-0.15091226400126923,-0.8921313183949974,0.10294117647058823
-0.1498770426780898,-0.8937597707139135,0.10294117647058823
-0.15036292241789623,-0.8932386659718603,0.10294117647058823
-0.1510015072187847,-0.8927501302761855,0.10294117647058823
-0.1490024591464382,-0.8928804064616988,0.10294117647058823
-0.15020823417420276,-0.8904051589369463,0.10294117647058823
-0.14976400126923686,-0.8876042209484106,0.10294117647058823
-0.1484451848326194,-0.8871808233454924,0.10294117647058823
-0.14822703474535937,-0.8874088066701407,0.10294117647058823
-0.14936934792955736,-0.8885812923397602,0.10294117647058823
-0.14927812152943043,-0.8917730588848358,0.10294117647058823
-0.15337934316991908,-0.8935969254820219,0.10294117647058823
-0.15397429795335554,-0.8948996873371547,0.10294117647058823
-0.15251070918610185,-0.8949648254299114,0.10294117647058823
-0.1548112010153895,-0.8924570088587807,0.10294117647058823
-0.15618356338251627,-0.8890372589890568,0.10294117647058823
-0.15560050769474854,-0.891382230328296,0.10294117647058823
-0.15770466444550213,-0.8888418447107869,0.10294117647058823
-0.1583571315246708,-0.8863014590932777,0.10294117647058823
-0.1591702363953673,-0.8879950495049505,0.10294117647058823
-0.15900563223861652,-0.8898840541948931,0.10294117647058823
-0.15978700618752975,-0.8887767066180302,0.10294117647058823
-0.15840472790734572,-0.8900794684731631,0.10294117647058823
-0.16010233222275108,-0.8894932256383533,0.10294117647058823
-0.1592356814215453,-0.8860083376758728,0.10294117647058823
-0.15788910042836746,-0.8874739447628973,0.10294117647058823
-0.15929517689988895,-0.8902097446586764,0.10294117647058823
-0.15930509281294622,-0.8928804064616988,0.10294117647058823
-0.15873591940345866,-0.8939226159458051,0.10294117647058823
-0.1580100745676662,-0.8921638874413758,0.10294117647058823
-0.1551582579723941,-0.893206096925482,0.10294117647058823
-0.15353799777883548,-0.8928804064616988,0.10294117647058823
-0.15187410756782485,-0.8906331422615946,0.10294117647058823
-0.15145367285419642,-0.8891349661281918,0.10294117647058823
-0.15023004918292876,-0.8912193850964044,0.10294117647058823
-0.14907980326828493,-0.8925547159979156,0.10294117647058823
-0.14990679041726163,-0.8918381969775925,0.10294117647058823
-0.14996628589560526,-0.8918381969775925,0.10294117647058823
-0.14963906076471523,-0.8913170922355393,0.10294117647058823
-0.14912343328573696,-0.890177175612298,0.10294117647058823
-0.1484055211803903,-0.8886464304325169,0.10294117647058823
-0.14868316674599397,-0.8915125065138093,0.10294117647058823
-0.15092019673171506,-0.8929129755080771,0.10294117647058823
-0.15419244804061558,-0.8929129755080771,0.10294117647058823
-0.15315722671743615,-0.8920661803022407,0.10294117647058823
-0.1525087260034904,-0.8912193850964044,0.10294117647058823
-0.15166785657623355,-0.891577644606566,0.10294117647058823
-0.15477352054577184,-0.8903074517978113,0.10294117647058823
-0.15481318419800094,-0.8920010422094841,0.10294117647058823
-0.1564453434872283,-0.8926524231370505,0.10294117647058823
-0.15745280025384736,-0.893401511203752,0.10294117647058823
-0.15894217039505,-0.8923267326732673,0.10294117647058823
-0.15977709027447248,-0.8912193850964044,0.10294117647058823
-0.15981477074409012,-0.890372589890568,0.10294117647058823
-0.15995755989211485,-0.8916102136529442,0.10294117647058823
-0.15962636839600192,-0.8902097446586764,0.10294117647058823
-0.15943399968269079,-0.8891349661281918,0.10294117647058823
-0.15960257020466445,-0.8900143303804064,0.10294117647058823
-0.15940028557829605,-0.8876042209484106,0.10294117647058823
-0.15932294145644932,-0.8858780614903595,0.10294117647058823
-0.15769078216722196,-0.8859757686294946,0.10294117647058823
-0.15611018562589243,-0.8849661281917666,0.10294117647058823
-0.15667737585276853,-0.8871808233454924,0.10294117647058823
-0.1566654767570998,-0.8876042209484106,0.10294117647058823
-0.15436498492781214,-0.8871156852527358,0.10294117647058823
-0.15229652546406472,-0.8880276185513288,0.10294117647058823
-0.151098683166746,-0.8881578947368421,0.10294117647058823
-0.14927415516420753,-0.8901120375195414,0.10294117647058823
-0.14787601142313184,-0.8910891089108911,0.10294117647058823
-0.14806441377122007,-0.8902748827514331,0.10294117647058823
-0.14827859749325717,-0.8926198540906722,0.10294117647058823
-0.14881405679835,-0.8956162063574779,0.10294117647058823
-0.14927613834681897,-0.8939877540385618,0.10294117647058823
-0.14895287958115183,-0.8957790515893694,0.10294117647058823
-0.14851856258924323,-0.8954533611255863,0.10294117647058823
-0.14908376963350786,-0.8942808754559667,0.10294117647058823
-0.15098167539267016,-0.8922290255341324,0.10294117647058823
-0.15104513723623672,-0.8908285565398645,0.10294117647058823
-0.15220728224654925,-0.8905028660760813,0.10294117647058823
-0.15242344915119785,-0.8923267326732673,0.10294117647058823
-0.15580080913850547,-0.892391870766024,0.10294117647058823
-0.15716920514040933,-0.8929781136008338,0.10294117647058823
-0.15783158813263526,-0.8919359041167274,0.10294117647058823
-0.15669324131366016,-0.8889395518499218,0.10294117647058823
-0.1590869427256862,-0.8902423137050547,0.10294117647058823
-0.15919800095192765,-0.8885161542470037,0.10294117647058823
-0.15936062192606695,-0.8894280875455967,0.10294117647058823
-0.16007258448357925,-0.8879950495049505,0.10294117647058823
-0.16018760907504362,-0.8889069828035435,0.10294117647058823
-0.15937450420434712,-0.8896560708702449,0.10294117647058823
-0.15962636839600192,-0.8904051589369463,0.10294117647058823
-0.16023520545771855,-0.8903400208441897,0.10294117647058823
-0.15946176423925115,-0.8899491922876498,0.10294117647058823
-0.15904132952562272,-0.8919033350703491,0.10294117647058823
-0.1580537045851182,-0.8912519541427827,0.10294117647058823
-0.15756782484531176,-0.8928478374153205,0.10294117647058823
-0.15756385848008886,-0.8926524231370505,0.10294117647058823
-0.1547279073457084,-0.8902748827514331,0.10294117647058823
-0.153536014596224,-0.8898514851485149,0.10294117647058823
-0.15285974932571791,-0.8941505992704534,0.10294117647058823
-0.1503688719657306,-0.8935317873892652,0.10294117647058823
-0.14793154053625257,-0.8930106826472121,0.10294117647058823
-0.14640845629065524,-0.886627149557061,0.10294117647058823
-0.14711446930033317,-0.885519801980198,0.10294117647058823
-0.14688640330001587,-0.8912193850964044,0.10294117647058823
-0.1487565445026178,-0.8915450755601876,0.10294117647058823
-0.1486117721719816,-0.8930106826472121,0.10294117647058823
-0.14762414723147707,-0.8906982803543513,0.10294117647058823
-0.14770545771854673,-0.8912519541427827,0.10294117647058823
-0.15028756147866096,-0.8934666492965087,0.10294117647058823
-0.1536331905441853,-0.8949973944762898,0.10294117647058823
-0.15753014437569413,-0.8995244919228765,0.10294117647058823
-0.15650087260034903,-0.8982217300677436,0.10294117647058823
-0.1554398699032207,-0.8952579468473163,0.10294117647058823
-0.15535260986831667,-0.892391870766024,0.10294117647058823
-0.1553030303030303,-0.890568004168838,0.10294117647058823
-0.1556719022687609,-0.8906331422615946,0.10294117647058823
-0.1565385530699667,-0.8885812923397602,0.10294117647058823
-0.1572148183404728,-0.8846404377279833,0.10294117647058823
-0.15804180548944946,-0.886627149557061,0.10294117647058823
-0.1588410280818658,-0.8881253256904638,0.10294117647058823
-0.15984451848326195,-0.8829142782699323,0.10294117647058823
-0.15936260510867842,-0.8826211568525274,0.10294117647058823
-0.15875575122957322,-0.8841519020323085,0.10294117647058823
-0.15891440583848962,-0.8870831162063575,0.10294117647058823
-0.16007060130096779,-0.8870179781136008,0.10294117647058823
-0.15968983023956845,-0.8844450234497134,0.10294117647058823
-0.1561419165476757,-0.8825560187597707,0.10294117647058823
-0.15351221640488658,-0.8882230328295988,0.10294117647058823
-0.15460693320640964,-0.8935317873892652,0.10294117647058823
-0.15604870696493733,-0.8954859301719645,0.10294117647058823
-0.15614984927812153,-0.8970166753517457,0.10294117647058823
-0.1553426939552594,-0.8963978634705576,0.10294117647058823
-0.15489251150245914,-0.8960721730067743,0.10294117647058823
-0.15298667301285102,-0.8965932777488275,0.10294117647058823
-0.1520387117245756,-0.8950625325690463,0.10294117647058823
-0.1511601618277011,-0.8933363731109953,0.10294117647058823
-0.1487565445026178,-0.8915450755601876,0.10294117647058823
-0.1486117721719816,-0.8930106826472121,0.10294117647058823
-0.14762414723147707,-0.8906982803543513,0.10294117647058823
-0.14770545771854673,-0.8912519541427827,0.10294117647058823
-0.15028756147866096,-0.8934666492965087,0.10294117647058823
-0.1536331905441853,-0.8949973944762898,0.10294117647058823
-0.15753014437569413,-0.8995244919228765,0.10294117647058823
-0.15650087260034903,-0.8982217300677436,0.10294117647058823
-0.1554398699032207,-0.8952579468473163,0.10294117647058823
-0.15535260986831667,-0.892391870766024,0.10294117647058823
-0.1553030303030303,-0.890568004168838,0.10294117647058823
-0.1556719022687609,-0.8906331422615946,0.10294117647058823
-0.1565385530699667,-0.8885812923397602,0.10294117647058823
-0.1572148183404728,-0.8846404377279833,0.10294117647058823
-0.15804180548944946,-0.886627149557061,0.10294117647058823
-0.1588410280818658,-0.8881253256904638,0.10294117647058823
-0.15984451848326195,-0.8829142782699323,0.10294117647058823
-0.15936260510867842,-0.8826211568525274,0.10294117647058823
-0.15875575122957322,-0.8841519020323085,0.10294117647058823
-0.15891440583848962,-0.8870831162063575,0.10294117647058823
-0.16007060130096779,-0.8870179781136008,0.10294117647058823
-0.15968983023956845,-0.8844450234497134,0.10294117647058823
-0.1561419165476757,-0.8825560187597707,0.10294117647058823
-0.15351221640488658,-0.8882230328295988,0.10294117647058823
-0.15460693320640964,-0.8935317873892652,0.10294117647058823
-0.15604870696493733,-0.8954859301719645,0.10294117647058823
-0.15614984927812153,-0.8970166753517457,0.10294117647058823
-0.1553426939552594,-0.8963978634705576,0.10294117647058823
-0.15489251150245914,-0.8960721730067743,0.10294117647058823
-0.15298667301285102,-0.8965932777488275,0.10294117647058823
-0.1520387117245756,-0.8950625325690463,0.10294117647058823
-0.1511601618277011,-0.8933363731109953,0.10294117647058823
-0.1487565445026178,-0.8915450755601876,0.10294117647058823
-0.1486117721719816,-0.8930106826472121,0.10294117647058823
-0.14762414723147707,-0.8906982803543513,0.10294117647058823
-0.14770545771854673,-0.8912519541427827,0.10294117647058823
-0.15028756147866096,-0.8934666492965087,0.10294117647058823
-0.1536331905441853,-0.8949973944762898,0.10294117647058823
-0.15753014437569413,-0.8995244919228765,0.10294117647058823
-0.15650087260034903,-0.8982217300677436,0.10294117647058823
-0.1554398699032207,-0.8952579468473163,0.10294117647058823
-0.15535260986831667,-0.892391870766024,0.10294117647058823
-0.1553030303030303,-0.890568004168838,0.10294117647058823
-0.1556719022687609,-0.8906331422615946,0.10294117647058823
-0.1565385530699667,-0.8885812923397602,0.10294117647058823
-0.1572148183404728,-0.8846404377279833,0.10294117647058823
-0.15804180548944946,-0.886627149557061,0.10294117647058823
-0.1588410280818658,-0.8881253256904638,0.10294117647058823
-0.15984451848326195,-0.8829142782699323,0.10294117647058823
-0.15936260510867842,-0.8826211568525274,0.10294117647058823
-0.15875575122957322,-0.8841519020323085,0.10294117647058823
-0.15891440583848962,-0.8870831162063575,0.10294117647058823
-0.16007060130096779,-0.8870179781136008,0.10294117647058823
-0.15968983023956845,-0.8844450234497134,0.10294117647058823
-0.1561419165476757,-0.8825560187597707,0.10294117647058823
-0.15351221640488658,-0.8882230328295988,0.10294117647058823
-0.15460693320640964,-0.8935317873892652,0.10294117647058823
-0.15604870696493733,-0.8954859301719645,0.10294117647058823
-0.15614984927812153,-0.8970166753517457,0.10294117647058823
-0.1553426939552594,-0.8963978634705576,0.10294117647058823
-0.15489251150245914,-0.8960721730067743,0.10294117647058823
-0.15298667301285102,-0.8965932777488275,0.10294117647058823
-0.1520387117245756,-0.8950625325690463,0.10294117647058823
-0.1511601618277011,-0.8933363731109953,0.10294117647058823
-0.1487565445026178,-0.8915450755601876,0.10294117647058823
-0.1486117721719816,-0.8930106826472121,0.10294117647058823
-0.14762414723147707,-0.8906982803543513,0.10294117647058823
-0.14770545771854673,-0.8912519541427827,0.10294117647058823
-0.15028756147866096,-0.8934666492965087,0.10294117647058823
-0.1536331905441853,-0.8949973944762898,0.10294117647058823
-0.15753014437569413,-0.8995244919228765,0.10294117647058823
-0.15650087260034903,-0.8982217300677436,0.10294117647058823
-0.1554398699032207,-0.8952579468473163,0.10294117647058823
-0.15535260986831667,-0.892391870766024,0.10294117647058823
-0.1553030303030303,-0.890568004168838,0.10294117647058823
-0.1556719022687609,-0.8906331422615946,0.10294117647058823
-0.1565385530699667,-0.8885812923397602,0.10294117647058823
-0.1572148183404728,-0.8846404377279833,0.10294117647058823
-0.15804180548944946,-0.886627149557061,0.10294117647058823
-0.1588410280818658,-0.8881253256904638,0.10294117647058823
-0.15984451848326195,-0.8829142782699323,0.10294117647058823
-0.15936260510867842,-0.8826211568525274,0.10294117647058823
-0.15875575122957322,-0.8841519020323085,0.10294117647058823
-0.15891440583848962,-0.8870831162063575,0.10294117647058823
-0.16007060130096779,-0.8870179781136008,0.10294117647058823
-0.15968983023956845,-0.8844450234497134,0.10294117647058823
-0.1561419165476757,-0.8825560187597707,0.10294117647058823
-0.15351221640488658,-0.8882230328295988,0.10294117647058823
-0.15460693320640964,-0.8935317873892652,0.10294117647058823
-0.15604870696493733,-0.8954859301719645,0.10294117647058823
-0.15614984927812153,-0.8970166753517457,0.10294117647058823
-0.1553426939552594,-0.8963978634705576,0.10294117647058823
-0.15489251150245914,-0.8960721730067743,0.10294117647058823
-0.15298667301285102,-0.8965932777488275,0.10294117647058823
-0.1520387117245756,-0.8950625325690463,0.10294117647058823
-0.1511601618277011,-0.8933363731109953,0.10294117647058823
-0.14992860542598763,-0.8948345492443981,0.10294117647058823
-0.15005552911312073,-0.8930432516935904,0.10294117647058823
-0.15032325876566716,-0.8945088587806149,0.10294117647058823
-0.15068816436617483,-0.8936294945284002,0.10294117647058823
-0.1496965730604474,-0.8930758207399687,0.10294117647058823
-0.15093011264477232,-0.8920336112558624,0.10294117647058823
-0.15054735840076156,-0.893303804064617,0.10294117647058823
-0.15193558622877995,-0.8906005732152162,0.10294117647058823
-0.15171545295890845,-0.8899817613340282,0.10294117647058823
-0.15090829763604632,-0.8889721208963002,0.10294117647058823
-0.1535974932571791,-0.8912845231891611,0.10294117647058823
-0.15466246231953037,-0.8883207399687337,0.10294117647058823
-0.1557075995557671,-0.8904377279833247,0.10294117647058823
-0.15635213390448993,-0.8883207399687337,0.10294117647058823
-0.15904132952562272,-0.8874739447628973,0.10294117647058823
-0.15830556877677296,-0.8876367899947889,0.10294117647058823
-0.15912065683008092,-0.8895257946847316,0.10294117647058823
-0.15979295573536412,-0.8897863470557582,0.10294117647058823
-0.1607468665714739,-0.8892652423137051,0.10294117647058823
-0.16065167380612408,-0.8881253256904638,0.10294117647058823
-0.16069332064096462,-0.8870505471599791,0.10294117647058823
-0.15917816912581312,-0.8872459614382491,0.10294117647058823
-0.15855148342059336,-0.8861386138613861,0.10294117647058823
-0.1578038235760749,-0.8862363210005211,0.10294117647058823
-0.15552118039029034,-0.8872133923918708,0.10294117647058823
-0.15516024115500554,-0.8870505471599791,0.10294117647058823
-0.15471600825003967,-0.8863991662324127,0.10294117647058823
-0.15015667142630493,-0.8855849400729546,0.10294117647058823
-0.1490341900682215,-0.8860734757686295,0.10294117647058823
-0.14907187053783913,-0.888548723293382,0.10294117647058823
-0.14784824686657147,-0.8899166232412715,0.10294117647058823
-0.149912739965096,-0.8870505471599791,0.10294117647058823
-0.14992860542598763,-0.8948345492443981,0.10294117647058823
-0.15005552911312073,-0.8930432516935904,0.10294117647058823
-0.15032325876566716,-0.8945088587806149,0.10294117647058823
-0.15068816436617483,-0.8936294945284002,0.10294117647058823
-0.1496965730604474,-0.8930758207399687,0.10294117647058823
-0.15093011264477232,-0.8920336112558624,0.10294117647058823
-0.15054735840076156,-0.893303804064617,0.10294117647058823
-0.15193558622877995,-0.8906005732152162,0.10294117647058823
-0.15171545295890845,-0.8899817613340282,0.10294117647058823
-0.15090829763604632,-0.8889721208963002,0.10294117647058823
-0.1535974932571791,-0.8912845231891611,0.10294117647058823
-0.15466246231953037,-0.8883207399687337,0.10294117647058823
-0.1557075995557671,-0.8904377279833247,0.10294117647058823
-0.15635213390448993,-0.8883207399687337,0.10294117647058823
-0.15904132952562272,-0.8874739447628973,0.10294117647058823
-0.15830556877677296,-0.8876367899947889,0.10294117647058823
-0.15912065683008092,-0.8895257946847316,0.10294117647058823
-0.15979295573536412,-0.8897863470557582,0.10294117647058823
-0.1607468665714739,-0.8892652423137051,0.10294117647058823
-0.16065167380612408,-0.8881253256904638,0.10294117647058823
-0.16069332064096462,-0.8870505471599791,0.10294117647058823
-0.15917816912581312,-0.8872459614382491,0.10294117647058823
-0.15855148342059336,-0.8861386138613861,0.10294117647058823
-0.1578038235760749,-0.8862363210005211,0.10294117647058823
-0.15552118039029034,-0.8872133923918708,0.10294117647058823
-0.15516024115500554,-0.8870505471599791,0.10294117647058823
-0.15471600825003967,-0.8863991662324127,0.10294117647058823
-0.15015667142630493,-0.8855849400729546,0.10294117647058823
-0.1490341900682215,-0.8860734757686295,0.10294117647058823
-0.14907187053783913,-0.888548723293382,0.10294117647058823
-0.14784824686657147,-0.8899166232412715,0.10294117647058823
-0.149912739965096,-0.8870505471599791,0.10294117647058823
-0.14882000634618436,-0.8869528400208442,0.10294117647058823
-0.14645208630810724,-0.882784002084419,0.10294117647058823
-0.14471283515786135,-0.8858129233976029,0.10294117647058823
-0.14678922735205457,-0.8942483064095883,0.10294117647058823
-0.15189195621132795,-0.9025859822824388,0.10294117647058823
-0.15449190861494527,-0.903009379885357,0.10294117647058823
-0.15362525781373948,-0.8965932777488275,0.10294117647058823
-0.15151911788037442,-0.894313444502345,0.10294117647058823
-0.15055727431381882,-0.8930432516935904,0.10294117647058823
-0.1507516262097414,-0.8922290255341324,0.10294117647058823
-0.15213390448992542,-0.8936620635747785,0.10294117647058823
-0.15466246231953037,-0.8925221469515373,0.10294117647058823
-0.15571354910360147,-0.8929129755080771,0.10294117647058823
-0.15663374583531653,-0.8917079207920792,0.10294117647058823
-0.15625495795652863,-0.8886138613861386,0.10294117647058823
-0.158985800412502,-0.8899491922876498,0.10294117647058823
-0.15928724416944312,-0.8921638874413758,0.10294117647058823
-0.15942408376963352,-0.8925221469515373,0.10294117647058823
-0.16002102173568142,-0.8916427826993225,0.10294117647058823
-0.16094320165000794,-0.8910891089108911,0.10294117647058823
-0.16007456766619071,-0.8893955184992184,0.10294117647058823
-0.16039584324924638,-0.8894932256383533,0.10294117647058823
-0.15943003331746788,-0.8897537780093799,0.10294117647058823
-0.15915833729969855,-0.8886789994788953,0.10294117647058823
-0.157359590671109,-0.8893955184992184,0.10294117647058823
-0.1564195621132794,-0.8898840541948931,0.10294117647058823
-0.1553030303030303,-0.8911542470036478,0.10294117647058823
-0.156832064096462,-0.8927826993225638,0.10294117647058823
-0.15552118039029034,-0.8925872850442939,0.10294117647058823
-0.15406155798825955,-0.894313444502345,0.10294117647058823
-0.15325638584800888,-0.892196456487754,0.10294117647058823
-0.15274075836903062,-0.893206096925482,0.10294117647058823
-0.15128906869744566,-0.894313444502345,0.10294117647058823
-0.1492404410598128,-0.8940854611776967,0.10294117647058823
-0.14824488338886244,-0.8943785825951016,0.10294117647058823
-0.1491571473901317,-0.8934992183428869,0.10294117647058823
-0.1488933841028082,-0.8952905158936947,0.10294117647058823
-0.14888545137236237,-0.8924895779051589,0.10294117647058823
-0.14905798825955893,-0.8951928087545596,0.10294117647058823
-0.1493019197207679,-0.894118030224075,0.10294117647058823
-0.14919879422497223,-0.894313444502345,0.10294117647058823
-0.14987902586070126,-0.8917079207920792,0.10294117647058823
-0.15141797556719022,-0.8917079207920792,0.10294117647058823
-0.1499206726955418,-0.8907634184471078,0.10294117647058823
-0.15088648262732032,-0.8919033350703491,0.10294117647058823
-0.15181857845470412,-0.8891349661281918,0.10294117647058823
-0.15304815167380612,-0.8883207399687337,0.10294117647058823
-0.15403181024908774,-0.8853569567483064,0.10294117647058823
-0.154678327780422,-0.8856826472120897,0.10294117647058823
-0.1547536887196573,-0.8850312662845232,0.10294117647058823
-0.1543094558146914,-0.8847055758207399,0.10294117647058823
-0.1551661907028399,-0.8831748306409588,0.10294117647058823
-0.1555231635729018,-0.885617509119333,0.10294117647058823
-0.15581072505156274,-0.8828165711307973,0.10294117647058823
-0.1549520069808028,-0.8843798853569568,0.10294117647058823
-0.1552375852768523,-0.8842496091714435,0.10294117647058823
-0.1575479930191972,-0.8887441375716519,0.10294117647058823
-0.16021735681421545,-0.8914147993746743,0.10294117647058823
-0.1638267491670633,-0.8946717040125065,0.10294117647058823
-0.16134182135491035,-0.8924244398124023,0.10294117647058823
-0.15955894018721245,-0.8906331422615946,0.10294117647058823
-0.15610820244328097,-0.8900468994267848,0.10294117647058823
-0.15417261621450104,-0.8876693590411673,0.10294117647058823
-0.15266936379501825,-0.8887115685252736,0.10294117647058823
-0.15581072505156274,-0.8828165711307973,0.10294117647058823
-0.1549520069808028,-0.8843798853569568,0.10294117647058823
-0.1552375852768523,-0.8842496091714435,0.10294117647058823
-0.1575479930191972,-0.8887441375716519,0.10294117647058823
-0.16021735681421545,-0.8914147993746743,0.10294117647058823
-0.1638267491670633,-0.8946717040125065,0.10294117647058823
-0.16134182135491035,-0.8924244398124023,0.10294117647058823
-0.15955894018721245,-0.8906331422615946,0.10294117647058823
-0.15610820244328097,-0.8900468994267848,0.10294117647058823
-0.15417261621450104,-0.8876693590411673,0.10294117647058823
-0.15266936379501825,-0.8887115685252736,0.10294117647058823
-0.15194153577661432,-0.8920010422094841,0.10294117647058823
-0.15112446454069492,-0.892196456487754,0.10294117647058823
-0.15006941139140093,-0.8936946326211569,0.10294117647058823
-0.15122759003649056,-0.8947042730588849,0.10294117647058823
-0.1486375535459305,-0.8943460135487233,0.10294117647058823
-0.14912739965095986,-0.8943785825951016,0.10294117647058823
-0.1495339520863081,-0.8929781136008338,0.10294117647058823
-0.1497362367126765,-0.89421573736321,0.10294117647058823
-0.1494109947643979,-0.8919033350703491,0.10294117647058823
-0.1494645406949072,-0.8914473684210527,0.10294117647058823
-0.15139616055846422,-0.8929129755080771,0.10294117647058823
-0.15185229255909885,-0.8916753517457009,0.10294117647058823
-0.15164405838489609,-0.8906982803543513,0.10294117647058823
-0.15193360304616849,-0.8914147993746743,0.10294117647058823
-0.15502340155481517,-0.8896886399166233,0.10294117647058823
-0.15468626051086784,-0.8891349661281918,0.10294117647058823
-0.15635411708710137,-0.8894280875455967,0.10294117647058823
-0.15635411708710137,-0.8898514851485149,0.10294117647058823
-0.1580318895763922,-0.8902748827514331,0.10294117647058823
-0.15876368396001903,-0.8888418447107869,0.10294117647058823
-0.1589064731080438,-0.8885161542470037,0.10294117647058823
-0.15987823258765668,-0.8887441375716519,0.10294117647058823
-0.15941813422179915,-0.8887115685252736,0.10294117647058823
-0.15953117563065208,-0.8893303804064617,0.10294117647058823
-0.15854751705537046,-0.8898840541948931,0.10294117647058823
-0.15971759479612882,-0.887539082855654,0.10294117647058823
-0.15876765032524195,-0.8890372589890568,0.10294117647058823
-0.1579049658892591,-0.8892652423137051,0.10294117647058823
-0.15642947802633667,-0.8898189161021365,0.10294117647058823
-0.15595153101697604,-0.8897863470557582,0.10294117647058823
-0.15754600983658576,-0.8904377279833247,0.10294117647058823
-0.1550174520069808,-0.8899491922876498,0.10294117647058823
-0.15194946850706012,-0.8908611255862429,0.10294117647058823
-0.15173330160241155,-0.8914147993746743,0.10294117647058823
-0.15160439473266699,-0.8910891089108911,0.10294117647058823
-0.1504481992701888,-0.8932712350182387,0.10294117647058823
-0.14845510074567667,-0.8924244398124023,0.10294117647058823
-0.14854434396319213,-0.8925872850442939,0.10294117647058823
-0.14768165952720927,-0.8929455445544554,0.10294117647058823
-0.14850269712835157,-0.8940854611776967,0.10294117647058823
-0.14786609551007457,-0.8937272016675352,0.10294117647058823
-0.14960138029509756,-0.8926524231370505,0.10294117647058823
-0.1487089481199429,-0.8910565398645127,0.10294117647058823
-0.1503073933047755,-0.8930432516935904,0.10294117647058823
-0.15071394574012376,-0.8926849921834289,0.10294117647058823
-0.15125337141043949,-0.8909262636789995,0.10294117647058823
-0.15211010629858798,-0.8910565398645127,0.10294117647058823
-0.15320085673488815,-0.8900468994267848,0.10294117647058823
-0.15345867047437728,-0.8905354351224596,0.10294117647058823
-0.15467634459781057,-0.8885161542470037,0.10294117647058823
-0.1568459463747422,-0.8897537780093799,0.10294117647058823
-0.15823615738537206,-0.8888744137571651,0.10294117647058823
-0.15820244328097732,-0.885617509119333,0.10294117647058823
-0.15907900999524036,-0.8866597186034393,0.10294117647058823
-0.15943201650007932,-0.8872785304846275,0.10294117647058823
-0.16007060130096779,-0.8874088066701407,0.10294117647058823
-0.15890052356020942,-0.88955836373111,0.10294117647058823
-0.15982666983975885,-0.8866597186034393,0.10294117647058823
-0.1582956528637157,-0.8880276185513288,0.10294117647058823
-0.15850388703791846,-0.8881904637832204,0.10294117647058823
-0.1589025067428209,-0.8891349661281918,0.10294117647058823
-0.15678050134856417,-0.8896235018238666,0.10294117647058823
-0.15676463588767253,-0.8902097446586764,0.10294117647058823
-0.15657028399174996,-0.8905028660760813,0.10294117647058823
-0.15350428367444074,-0.8902748827514331,0.10294117647058823
-0.15345470410915438,-0.890568004168838,0.10294117647058823
-0.15309773123909248,-0.8908611255862429,0.10294117647058823
-0.15167975567190226,-0.8895257946847316,0.10294117647058823
-0.14943875932095826,-0.8890698280354351,0.10294117647058823
-0.14992860542598763,-0.8924244398124023,0.10294117647058823
-0.1484055211803903,-0.8934992183428869,0.10294117647058823
-0.14838965571949866,-0.8920336112558624,0.10294117647058823
-0.14785221323179437,-0.8912193850964044,0.10294117647058823
-0.14704109154370934,-0.8906657113079729,0.10294117647058823
-0.14850468031096303,-0.8906982803543513,0.10294117647058823
-0.1486296208154847,-0.8899817613340282,0.10294117647058823
-0.14889536728541963,-0.8914799374674309,0.10294117647058823
-0.14949627161669046,-0.8908936946326211,0.10294117647058823
-0.1509796922100587,-0.8920336112558624,0.10294117647058823
-0.15255037283833095,-0.891382230328296,0.10294117647058823
-0.15176106615897192,-0.8910565398645127,0.10294117647058823
-0.15301047120418848,-0.8864643043251693,0.10294117647058823
-0.15402586070125338,-0.8890698280354351,0.10294117647058823
-0.15447405997144217,-0.8873110995310057,0.10294117647058823
-0.15659804854831033,-0.8886789994788953,0.10294117647058823
-0.15827582103760116,-0.8869528400208442,0.10294117647058823
-0.15598326193875933,-0.8863340281396561,0.10294117647058823
-0.15620934475646517,-0.8847707139134966,0.10294117647058823
-0.15615778200856734,-0.884412454403335,0.10294117647058823
-0.15567785181659527,-0.8842821782178217,0.10294117647058823
-0.1565028557829605,-0.8858454924439813,0.10294117647058823
-0.15785736950658416,-0.8898514851485149,0.10294117647058823
-0.15967198159606535,-0.88955836373111,0.10294117647058823
-0.15946176423925115,-0.8909262636789995,0.10294117647058823
-0.15867047437728066,-0.8916427826993225,0.10294117647058823
-0.15686974456607963,-0.8910565398645127,0.10294117647058823
-0.15350428367444074,-0.8902748827514331,0.10294117647058823
-0.15345470410915438,-0.890568004168838,0.10294117647058823
-0.15309773123909248,-0.8908611255862429,0.10294117647058823
-0.15167975567190226,-0.8895257946847316,0.10294117647058823
-0.14943875932095826,-0.8890698280354351,0.10294117647058823
-0.14992860542598763,-0.8924244398124023,0.10294117647058823
-0.1484055211803903,-0.8934992183428869,0.10294117647058823
-0.14838965571949866,-0.8920336112558624,0.10294117647058823
-0.14785221323179437,-0.8912193850964044,0.10294117647058823
-0.14704109154370934,-0.8906657113079729,0.10294117647058823
-0.14850468031096303,-0.8906982803543513,0.10294117647058823
-0.1486296208154847,-0.8899817613340282,0.10294117647058823
-0.14889536728541963,-0.8914799374674309,0.10294117647058823
-0.14949627161669046,-0.8908936946326211,0.10294117647058823
-0.1509796922100587,-0.8920336112558624,0.10294117647058823
-0.15255037283833095,-0.891382230328296,0.10294117647058823
-0.15176106615897192,-0.8910565398645127,0.10294117647058823
-0.15301047120418848,-0.8864643043251693,0.10294117647058823
-0.15402586070125338,-0.8890698280354351,0.10294117647058823
-0.15447405997144217,-0.8873110995310057,0.10294117647058823
-0.15659804854831033,-0.8886789994788953,0.10294117647058823
-0.15827582103760116,-0.8869528400208442,0.10294117647058823
-0.15598326193875933,-0.8863340281396561,0.10294117647058823
-0.15620934475646517,-0.8847707139134966,0.10294117647058823
-0.15615778200856734,-0.884412454403335,0.10294117647058823
-0.15567785181659527,-0.8842821782178217,0.10294117647058823
-0.1565028557829605,-0.8858454924439813,0.10294117647058823
-0.15785736950658416,-0.8898514851485149,0.10294117647058823
-0.15967198159606535,-0.88955836373111,0.10294117647058823
-0.15946176423925115,-0.8909262636789995,0.10294117647058823
-0.15867047437728066,-0.8916427826993225,0.10294117647058823
-0.15686974456607963,-0.8910565398645127,0.10294117647058823
-0.15456330318895764,-0.8908611255862429,0.10294117647058823
-0.15334959543074728,-0.8889395518499218,0.10294117647058823
-0.1531413612565445,-0.8892001042209484,0.10294117647058823
-0.15251665873393622,-0.8918707660239709,0.10294117647058823
-0.15458115183246074,-0.8928804064616988,0.10294117647058823
-0.15243336506425512,-0.8907634184471078,0.10294117647058823
-0.1504878629224179,-0.8945414278269932,0.10294117647058823
-0.15017055370458512,-0.8937272016675352,0.10294117647058823
-0.14951412026019356,-0.8912519541427827,0.10294117647058823
-0.1485899571632556,-0.8930106826472121,0.10294117647058823
-0.14960732984293193,-0.8946717040125065,0.10294117647058823
-0.14985721085197526,-0.8916753517457009,0.10294117647058823
-0.14992860542598763,-0.8936294945284002,0.10294117647058823
-0.15052554339203553,-0.8945088587806149,0.10294117647058823
-0.15110661589719182,-0.8940854611776967,0.10294117647058823
-0.15216761859432015,-0.891186816050026,0.10294117647058823
-0.1514635887672537,-0.8909914017717562,0.10294117647058823
-0.1514278914802475,-0.88955836373111,0.10294117647058823
-0.1517491670633032,-0.888451016154247,0.10294117647058823
-0.1518939393939394,-0.8866922876498177,0.10294117647058823
-0.1532068062827225,-0.8851615424700364,0.10294117647058823
-0.15276059019514518,-0.8827188639916623,0.10294117647058823
-0.15349436776138348,-0.8841193329859302,0.10294117647058823
-0.15399016341424718,-0.8842496091714435,0.10294117647058823
-0.15422021259717594,-0.8790059927045336,0.10294117647058823
-0.15188204029827065,-0.8757165190203231,0.10294117647058823
-0.1519375694113914,-0.8777032308494007,0.10294117647058823
-0.15484491511978424,-0.8846730067743617,0.10294117647058823
-0.1586070125337141,-0.8870831162063575,0.10294117647058823
-0.16286292241789624,-0.8867899947889526,0.10294117647058823
-0.1612208472156116,-0.8892652423137051,0.10294117647058823
-0.15975725844835792,-0.8926198540906722,0.10294117647058823
-0.15858916389021102,-0.8947368421052632,0.10294117647058823
-0.1572366333491988,-0.8930432516935904,0.10294117647058823
-0.1560943201650008,-0.8917404898384576,0.10294117647058823
-0.15484689830239567,-0.8920010422094841,0.10294117647058823
-0.15356972870061875,-0.8928152683689422,0.10294117647058823
-0.15280818657782008,-0.8917730588848358,0.10294117647058823
-0.15114826273203236,-0.8907634184471078,0.10294117647058823
-0.14886363636363636,-0.8887115685252736,0.10294117647058823
-0.14744962716166904,-0.890372589890568,0.10294117647058823
-0.147100587022053,-0.8914799374674309,0.10294117647058823
-0.1497144217039505,-0.8955510682647212,0.10294117647058823
-0.1510193558622878,-0.8986451276706618,0.10294117647058823
-0.1526931619863557,-0.8972120896300156,0.10294117647058823
-0.15237585276852292,-0.8955184992183429,0.10294117647058823
-0.14974813580834523,-0.8948019801980198,0.10294117647058823
-0.149978184991274,-0.8942483064095883,0.10294117647058823
-0.15045018245280026,-0.8918381969775925,0.10294117647058823
-0.15183444391559575,-0.8914799374674309,0.10294117647058823
-0.1527943042995399,-0.8906657113079729,0.10294117647058823
-0.1537343328573695,-0.8910239708181344,0.10294117647058823
-0.1559971442170395,-0.8883858780614904,0.10294117647058823
-0.15647509122640013,-0.8890698280354351,0.10294117647058823
-0.15645129303506267,-0.8865620114643044,0.10294117647058823
-0.1591266063779153,-0.8910239708181344,0.10294117647058823
-0.15975924163096938,-0.8916102136529442,0.10294117647058823
-0.1596045533872759,-0.8894932256383533,0.10294117647058823
-0.15936062192606695,-0.8882881709223553,0.10294117647058823
-0.15928129462160875,-0.8881904637832204,0.10294117647058823
-0.15932889100428368,-0.8888744137571651,0.10294117647058823
-0.16053863239727115,-0.8882881709223553,0.10294117647058823
-0.15946771378708552,-0.8889069828035435,0.10294117647058823
-0.15936657147390132,-0.8878973423658155,0.10294117647058823
-0.15858916389021102,-0.8947368421052632,0.10294117647058823
-0.1572366333491988,-0.8930432516935904,0.10294117647058823
-0.1560943201650008,-0.8917404898384576,0.10294117647058823
-0.15484689830239567,-0.8920010422094841,0.10294117647058823
-0.15356972870061875,-0.8928152683689422,0.10294117647058823
-0.15280818657782008,-0.8917730588848358,0.10294117647058823
-0.15114826273203236,-0.8907634184471078,0.10294117647058823
-0.14886363636363636,-0.8887115685252736,0.10294117647058823
-0.14744962716166904,-0.890372589890568,0.10294117647058823
-0.147100587022053,-0.8914799374674309,0.10294117647058823
-0.1497144217039505,-0.8955510682647212,0.10294117647058823
-0.1510193558622878,-0.8986451276706618,0.10294117647058823
-0.1526931619863557,-0.8972120896300156,0.10294117647058823
-0.15237585276852292,-0.8955184992183429,0.10294117647058823
-0.14974813580834523,-0.8948019801980198,0.10294117647058823
-0.149978184991274,-0.8942483064095883,0.10294117647058823
-0.15045018245280026,-0.8918381969775925,0.10294117647058823
-0.15183444391559575,-0.8914799374674309,0.10294117647058823
-0.1527943042995399,-0.8906657113079729,0.10294117647058823
-0.1537343328573695,-0.8910239708181344,0.10294117647058823
-0.1559971442170395,-0.8883858780614904,0.10294117647058823
-0.15647509122640013,-0.8890698280354351,0.10294117647058823
-0.15645129303506267,-0.8865620114643044,0.10294117647058823
-0.1591266063779153,-0.8910239708181344,0.10294117647058823
-0.15975924163096938,-0.8916102136529442,0.10294117647058823
-0.1596045533872759,-0.8894932256383533,0.10294117647058823
-0.15936062192606695,-0.8882881709223553,0.10294117647058823
-0.15928129462160875,-0.8881904637832204,0.10294117647058823
-0.15932889100428368,-0.8888744137571651,0.10294117647058823
-0.16053863239727115,-0.8882881709223553,0.10294117647058823
-0.15946771378708552,-0.8889069828035435,0.10294117647058823
-0.15936657147390132,-0.8878973423658155,0.10294117647058823
-0.1588806917340949,-0.8887115685252736,0.10294117647058823
-0.15624900840869427,-0.8883207399687337,0.10294117647058823
-0.15611018562589243,-0.8908936946326211,0.10294117647058823
-0.1574171029668412,-0.8904702970297029,0.10294117647058823
-0.15364310645724258,-0.8894932256383533,0.10294117647058823
-0.15317904172616215,-0.8902423137050547,0.10294117647058823
-0.15270902744724735,-0.8924244398124023,0.10294117647058823
-0.15176304934158338,-0.8919359041167274,0.10294117647058823
-0.15036292241789623,-0.8933363731109953,0.10294117647058823
-0.1494823893384103,-0.8948671182907765,0.10294117647058823
-0.1492047437728066,-0.8943785825951016,0.10294117647058823
-0.14934356655560843,-0.8953556539864512,0.10294117647058823
-0.14981358083452323,-0.8950951016154247,0.10294117647058823
-0.14874266222433763,-0.8950625325690463,0.10294117647058823
-0.14952403617325083,-0.8948996873371547,0.10294117647058823
-0.14901435824210693,-0.896137311099531,0.10294117647058823
-0.15088251626209742,-0.896137311099531,0.10294117647058823
-0.15068221481834046,-0.8963978634705576,0.10294117647058823
-0.15207242582897032,-0.8950951016154247,0.10294117647058823
-0.15272290972552752,-0.8921313183949974,0.10294117647058823
-0.15199508170712359,-0.8930758207399687,0.10294117647058823
-0.1539842138664128,-0.8911542470036478,0.10294117647058823
-0.15570561637315564,-0.890568004168838,0.10294117647058823
-0.15611018562589243,-0.8882881709223553,0.10294117647058823
-0.1564413771220054,-0.8869528400208442,0.10294117647058823
-0.1566476281135967,-0.8859757686294946,0.10294117647058823
-0.15696692051404093,-0.8871156852527358,0.10294117647058823
-0.15896200222116452,-0.8867248566961959,0.10294117647058823
-0.15869228938600666,-0.8861060448150078,0.10294117647058823
-0.1582123591940346,-0.8850638353309015,0.10294117647058823
-0.16016182770109472,-0.8863014590932777,0.10294117647058823
-0.15971759479612882,-0.8857803543512246,0.10294117647058823
-0.1588806917340949,-0.8887115685252736,0.10294117647058823
-0.15624900840869427,-0.8883207399687337,0.10294117647058823
-0.15611018562589243,-0.8908936946326211,0.10294117647058823
-0.1574171029668412,-0.8904702970297029,0.10294117647058823
-0.15364310645724258,-0.8894932256383533,0.10294117647058823
-0.15317904172616215,-0.8902423137050547,0.10294117647058823
-0.15270902744724735,-0.8924244398124023,0.10294117647058823
-0.15176304934158338,-0.8919359041167274,0.10294117647058823
-0.15036292241789623,-0.8933363731109953,0.10294117647058823
-0.1494823893384103,-0.8948671182907765,0.10294117647058823
-0.1492047437728066,-0.8943785825951016,0.10294117647058823
-0.14934356655560843,-0.8953556539864512,0.10294117647058823
-0.14981358083452323,-0.8950951016154247,0.10294117647058823
-0.14874266222433763,-0.8950625325690463,0.10294117647058823
-0.14952403617325083,-0.8948996873371547,0.10294117647058823
-0.14901435824210693,-0.896137311099531,0.10294117647058823
-0.15088251626209742,-0.896137311099531,0.10294117647058823
-0.15068221481834046,-0.8963978634705576,0.10294117647058823
-0.15207242582897032,-0.8950951016154247,0.10294117647058823
-0.15272290972552752,-0.8921313183949974,0.10294117647058823
-0.15199508170712359,-0.8930758207399687,0.10294117647058823
-0.1539842138664128,-0.8911542470036478,0.10294117647058823
-0.15570561637315564,-0.890568004168838,0.10294117647058823
-0.15611018562589243,-0.8882881709223553,0.10294117647058823
-0.1564413771220054,-0.8869528400208442,0.10294117647058823
-0.1566476281135967,-0.8859757686294946,0.10294117647058823
-0.15696692051404093,-0.8871156852527358,0.10294117647058823
-0.15896200222116452,-0.8867248566961959,0.10294117647058823
-0.15869228938600666,-0.8861060448150078,0.10294117647058823
-0.1582123591940346,-0.8850638353309015,0.10294117647058823
-0.16016182770109472,-0.8863014590932777,0.10294117647058823
-0.15971759479612882,-0.8857803543512246,0.10294117647058823
-0.15983261938759322,-0.8846404377279833,0.10294117647058823
-0.15847017293352372,-0.8851615424700364,0.10294117647058823
-0.15818657782008566,-0.8879624804585722,0.10294117647058823
-0.15727034745359353,-0.8890372589890568,0.10294117647058823
-0.1563878311914961,-0.8884835852006253,0.10294117647058823
-0.15550729811201017,-0.8882230328295988,0.10294117647058823
-0.1534963509439949,-0.8897537780093799,0.10294117647058823
-0.15216365222909725,-0.8904377279833247,0.10294117647058823
-0.1515686974456608,-0.8912193850964044,0.10294117647058823
-0.1495478343645883,-0.8894280875455967,0.10294117647058823
-0.15000198318261146,-0.8925547159979156,0.10294117647058823
-0.15104315405362526,-0.8908285565398645,0.10294117647058823
-0.14895089639854037,-0.8915450755601876,0.10294117647058823
-0.14888148500713946,-0.8926524231370505,0.10294117647058823
-0.14863953672854197,-0.8901446065659198,0.10294117647058823
-0.14869308265905123,-0.8909588327253778,0.10294117647058823
-0.1486197049024274,-0.8913170922355393,0.10294117647058823
-0.149341583372997,-0.8891023970818135,0.10294117647058823
-0.15034110740917023,-0.8901446065659198,0.10294117647058823
-0.15135054735840076,-0.8896560708702449,0.10294117647058823
-0.15218546723782325,-0.8898189161021365,0.10294117647058823
-0.15226082817705855,-0.8900794684731631,0.10294117647058823
-0.15425987624940504,-0.8897537780093799,0.10294117647058823
-0.15527328256385847,-0.8869202709744659,0.10294117647058823
-0.15701055053149293,-0.8872459614382491,0.10294117647058823
-0.15677653498334126,-0.8878322042730589,0.10294117647058823
-0.15851776931619863,-0.8871156852527358,0.10294117647058823
-0.15864469300333175,-0.8856500781657113,0.10294117647058823
-0.15951332698714898,-0.8876367899947889,0.10294117647058823
-0.15940623512613042,-0.8863991662324127,0.10294117647058823
-0.1586030461684912,-0.8877996352266806,0.10294117647058823
-0.1603601459622402,-0.8873762376237624,0.10294117647058823
-0.15896596858638742,-0.8853243877019281,0.10294117647058823
-0.15803387275900366,-0.8870179781136008,0.10294117647058823
-0.15879144851657942,-0.8871482542991141,0.10294117647058823
-0.1587696335078534,-0.8878322042730589,0.10294117647058823
-0.15700063461843566,-0.8889069828035435,0.10294117647058823
-0.15608638743455497,-0.8889069828035435,0.10294117647058823
-0.15646914167856577,-0.8889395518499218,0.10294117647058823
-0.1543848167539267,-0.8893955184992184,0.10294117647058823
-0.15347651911788038,-0.8897212089630016,0.10294117647058823
-0.15296485800412501,-0.8914473684210527,0.10294117647058823
-0.1511165318102491,-0.8910239708181344,0.10294117647058823
-0.1508963985403776,-0.8909588327253778,0.10294117647058823
-0.14972632079961923,-0.8919033350703491,0.10294117647058823
-0.1485145962240203,-0.891577644606566,0.10294117647058823
-0.14883785498968746,-0.8910565398645127,0.10294117647058823
-0.14931580199904806,-0.8914799374674309,0.10294117647058823
-0.1489370141202602,-0.8912193850964044,0.10294117647058823
-0.1488001745200698,-0.8924895779051589,0.10294117647058823
-0.1492007774075837,-0.8893955184992184,0.10294117647058823
-0.1498730763128669,-0.8891349661281918,0.10294117647058823
-0.15031334285260986,-0.8882230328295988,0.10294117647058823
-0.15097770902744725,-0.8882881709223553,0.10294117647058823
-0.15171545295890845,-0.8860409067222512,0.10294117647058823
