0.40133666508012056,-0.7706487754038561,0.19117647058823528
0.4021497699508171,-0.7718538301198541,0.19117647058823528
0.4033991749960336,-0.7743290776446066,0.19117647058823528
0.40397429795335554,-0.7729937467430954,0.19117647058823528
0.40280422021259715,-0.7750455966649297,0.19117647058823528
0.40421227986673014,-0.7748501823866597,0.19117647058823528
0.4031413612565445,-0.7732868681605003,0.19117647058823528
0.40280422021259715,-0.7730914538822303,0.19117647058823528
0.40203077899412976,-0.773156591974987,0.19117647058823528
0.4012176741234333,-0.7724400729546639,0.19117647058823528
0.4008210376011423,-0.7721795205836373,0.19117647058823528
0.39980961446930036,-0.7714630015633143,0.19117647058823528
0.3981635729017928,-0.7698671182907765,0.19117647058823528
0.39721164524829444,-0.7666427826993225,0.19117647058823528
0.3962002221164525,-0.7664473684210527,0.19117647058823528
0.395168967158496,-0.7640046899426784,0.19117647058823528
0.3937807393304775,-0.763548723293382,0.19117647058823528
0.3927891480247501,-0.7600964043772799,0.19117647058823528
0.39078613358718073,-0.7599661281917666,0.19117647058823528
0.3903696652387752,-0.7580445544554455,0.19117647058823528
0.38929874662858954,-0.759607868681605,0.19117647058823528
0.39054815167380613,-0.7590541948931735,0.19117647058823528
0.3901316833254006,-0.7579468473163106,0.19117647058823528
0.39153974297953353,-0.7588587806149036,0.19117647058823528
0.39034983341266066,-0.7587610734757686,0.19117647058823528
0.390508488021577,-0.7593147472642001,0.19117647058823528
0.39213469776297,-0.7604872329338197,0.19117647058823528
0.39342376646041566,-0.762539082855654,0.19117647058823528
0.3964183722037125,-0.7620831162063575,0.19117647058823528
0.3966563541170871,-0.763451016154247,0.19117647058823528
0.3967356814215453,-0.7645909327774882,0.19117647058823528
0.39721164524829444,-0.766382230328296,0.19117647058823528
0.39994843725210216,-0.7682386659718603,0.19117647058823528
0.4018721243852134,-0.7700951016154247,0.19117647058823528
0.40282405203871174,-0.772146951537259,0.19117647058823528
0.4021497699508171,-0.771235018238666,0.19117647058823528
0.40367682056163734,-0.7728634705575821,0.19117647058823528
0.4033198476915754,-0.7730263157894737,0.19117647058823528
0.40296287482151355,-0.7730914538822303,0.19117647058823528
0.40320085673488815,-0.7732542991141219,0.19117647058823528
0.40274472473425355,-0.7730263157894737,0.19117647058823528
0.4019117880374425,-0.7722446586763939,0.19117647058823528
0.4004045692527368,-0.7721795205836373,0.19117647058823528
0.3999087735998731,-0.7704533611255863,0.19117647058823528
0.3991948278597493,-0.7699973944762898,0.19117647058823528
0.39856020942408377,-0.7682712350182387,0.19117647058823528
0.39731080437886723,-0.7664799374674309,0.19117647058823528
0.396398540377598,-0.7659914017717562,0.19117647058823528
0.3961803902903379,-0.7651120375195414,0.19117647058823528
0.39358242106933206,-0.7619528400208442,0.19117647058823528
0.3924520069808028,-0.7599986972381448,0.19117647058823528
0.39171822941456447,-0.7591519020323085,0.19117647058823528
0.392531334285261,-0.7586633663366337,0.19117647058823528
0.38987386958591147,-0.7582399687337155,0.19117647058823528
0.3914009201967317,-0.7587610734757686,0.19117647058823528
0.39118277010947167,-0.758793642522147,0.19117647058823528
0.3920553704585118,-0.7589239187076603,0.19117647058823528
0.3924520069808028,-0.759412454403335,0.19117647058823528
0.3922933523718864,-0.759607868681605,0.19117647058823528
0.3925511661113755,-0.7607152162584679,0.19117647058823528
0.39227352054577186,-0.7611711829077644,0.19117647058823528
0.3944153577661431,-0.7608780614903595,0.19117647058823528
0.39489132159289225,-0.7643303804064617,0.19117647058823528
0.396398540377598,-0.7650143303804064,0.19117647058823528
0.39768760907504364,-0.7660891089108911,0.19117647058823528
0.39879819133745836,-0.7675872850442939,0.19117647058823528
0.40002776455656036,-0.7693460135487233,0.19117647058823528
0.4014754878629224,-0.7715281396560709,0.19117647058823528
0.40290337934316994,-0.7721143824908807,0.19117647058823528
0.4034785023004918,-0.7745896300156332,0.19117647058823528
0.4041924480406156,-0.7744267847837415,0.19117647058823528
0.4032405203871172,-0.7742313705054716,0.19117647058823528
0.40274472473425355,-0.7730263157894737,0.19117647058823528
0.4019117880374425,-0.7722446586763939,0.19117647058823528
0.4004045692527368,-0.7721795205836373,0.19117647058823528
0.3999087735998731,-0.7704533611255863,0.19117647058823528
0.3991948278597493,-0.7699973944762898,0.19117647058823528
0.39856020942408377,-0.7682712350182387,0.19117647058823528
0.39731080437886723,-0.7664799374674309,0.19117647058823528
0.396398540377598,-0.7659914017717562,0.19117647058823528
0.3961803902903379,-0.7651120375195414,0.19117647058823528
0.39358242106933206,-0.7619528400208442,0.19117647058823528
0.3924520069808028,-0.7599986972381448,0.19117647058823528
0.39171822941456447,-0.7591519020323085,0.19117647058823528
0.392531334285261,-0.7586633663366337,0.19117647058823528
0.38987386958591147,-0.7582399687337155,0.19117647058823528
0.3914009201967317,-0.7587610734757686,0.19117647058823528
0.39118277010947167,-0.758793642522147,0.19117647058823528
0.3920553704585118,-0.7589239187076603,0.19117647058823528
0.3924520069808028,-0.759412454403335,0.19117647058823528
0.3922933523718864,-0.759607868681605,0.19117647058823528
0.3925511661113755,-0.7607152162584679,0.19117647058823528
0.39227352054577186,-0.7611711829077644,0.19117647058823528
0.3944153577661431,-0.7608780614903595,0.19117647058823528
0.39489132159289225,-0.7643303804064617,0.19117647058823528
0.396398540377598,-0.7650143303804064,0.19117647058823528
0.39768760907504364,-0.7660891089108911,0.19117647058823528
0.39879819133745836,-0.7675872850442939,0.19117647058823528
0.40002776455656036,-0.7693460135487233,0.19117647058823528
0.4014754878629224,-0.7715281396560709,0.19117647058823528
0.40290337934316994,-0.7721143824908807,0.19117647058823528
0.4034785023004918,-0.7745896300156332,0.19117647058823528
0.4041924480406156,-0.7744267847837415,0.19117647058823528
0.4032405203871172,-0.7742313705054716,0.19117647058823528
0.40343883864826274,-0.7746873371547681,0.19117647058823528
0.4027645565603681,-0.7753712871287128,0.19117647058823528
0.4028438838648263,-0.7723749348619072,0.19117647058823528
0.4020704426463589,-0.7736776967170401,0.19117647058823528
0.4005433920355386,-0.7721143824908807,0.19117647058823528
0.40058305568776775,-0.7708116206357478,0.19117647058823528
0.3985998730763129,-0.7690203230849401,0.19117647058823528
0.39715214976995084,-0.7680106826472121,0.19117647058823528
0.3961803902903379,-0.7667730588848358,0.19117647058823528
0.3962398857686816,-0.7657634184471078,0.19117647058823528
0.39405838489608125,-0.7633207399687337,0.19117647058823528
0.3931064572425829,-0.7615620114643044,0.19117647058823528
0.3915992384578772,-0.7615620114643044,0.19117647058823528
0.391519911153419,-0.761431735278791,0.19117647058823528
0.39076630176106614,-0.757588587806149,0.19117647058823528
0.39062747897826433,-0.7584679520583637,0.19117647058823528
0.390905124543868,-0.760519801980198,0.19117647058823528
0.3912224337617008,-0.7590541948931735,0.19117647058823528
0.39177772489290813,-0.7585005211047421,0.19117647058823528
0.3923726796763446,-0.7604872329338197,0.19117647058823528
0.392749484372521,-0.7582073996873372,0.19117647058823528
0.39326511185149926,-0.760422094841063,0.19117647058823528
0.39451451689671585,-0.7620831162063575,0.19117647058823528
0.39590274472473425,-0.7627996352266806,0.19117647058823528
0.39629938124702524,-0.7643303804064617,0.19117647058823528
0.39798508646676184,-0.7653074517978113,0.19117647058823528
0.39768760907504364,-0.7661216779572694,0.19117647058823528
0.4006028875138823,-0.770225377800938,0.19117647058823528
0.40050372838330955,-0.772146951537259,0.19117647058823528
0.4022290972552753,-0.7725377800937988,0.19117647058823528
0.40282405203871174,-0.7722772277227723,0.19117647058823528
0.4026852292559099,-0.7753387180823346,0.19117647058823528
0.40320085673488815,-0.7753387180823346,0.19117647058823528
0.403954466127241,-0.773352006253257,0.19117647058823528
0.4033198476915754,-0.7738731109953101,0.19117647058823528
0.4022885927336189,-0.7725052110474205,0.19117647058823528
0.4023679200380771,-0.7719189682126107,0.19117647058823528
0.4025265746469935,-0.7722446586763939,0.19117647058823528
0.40058305568776775,-0.7715281396560709,0.19117647058823528
0.39911550055529116,-0.7690203230849401,0.19117647058823528
0.3981239092495637,-0.7654702970297029,0.19117647058823528
0.3970331588132635,-0.7679781136008338,0.19117647058823528
0.39709265429160717,-0.7657959874934862,0.19117647058823528
0.3961605584642234,-0.7658611255862429,0.19117647058823528
0.3951491353323814,-0.7630276185513288,0.19117647058823528
0.3939195621132794,-0.7609757686294946,0.19117647058823528
0.3928486435030938,-0.7615945805106826,0.19117647058823528
0.39112327463112806,-0.7580445544554455,0.19117647058823528
0.39054815167380613,-0.7584353830119854,0.19117647058823528
0.39094478819609707,-0.7581096925482022,0.19117647058823528
0.39092495636998253,-0.7570349140177176,0.19117647058823528
0.39191654767571,-0.7589239187076603,0.19117647058823528
0.3920752022846264,-0.7592821782178217,0.19117647058823528
0.39300729811201013,-0.7608454924439813,0.19117647058823528
0.3934832619387593,-0.7595752996352266,0.19117647058823528
0.39350309376487386,-0.7609431995831162,0.19117647058823528
0.3952681262890687,-0.7644280875455967,0.19117647058823528
0.3978859273361891,-0.7645257946847316,0.19117647058823528
0.39822306838013644,-0.7648840541948931,0.19117647058823528
0.39784626368396003,-0.7654377279833247,0.19117647058823528
0.3999682690782167,-0.7680432516935904,0.19117647058823528
0.40127716960177695,-0.7704207920792079,0.19117647058823528
0.4034785023004918,-0.7705184992183429,0.19117647058823528
0.4030223702998572,-0.7710721730067743,0.19117647058823528
0.40320085673488815,-0.7753387180823346,0.19117647058823528
0.403954466127241,-0.773352006253257,0.19117647058823528
0.4033198476915754,-0.7738731109953101,0.19117647058823528
0.4022885927336189,-0.7725052110474205,0.19117647058823528
0.4023679200380771,-0.7719189682126107,0.19117647058823528
0.4025265746469935,-0.7722446586763939,0.19117647058823528
0.40058305568776775,-0.7715281396560709,0.19117647058823528
0.39911550055529116,-0.7690203230849401,0.19117647058823528
0.3981239092495637,-0.7654702970297029,0.19117647058823528
0.3970331588132635,-0.7679781136008338,0.19117647058823528
0.39709265429160717,-0.7657959874934862,0.19117647058823528
0.3961605584642234,-0.7658611255862429,0.19117647058823528
0.3951491353323814,-0.7630276185513288,0.19117647058823528
0.3939195621132794,-0.7609757686294946,0.19117647058823528
0.3928486435030938,-0.7615945805106826,0.19117647058823528
0.39112327463112806,-0.7580445544554455,0.19117647058823528
0.39054815167380613,-0.7584353830119854,0.19117647058823528
0.39094478819609707,-0.7581096925482022,0.19117647058823528
0.39092495636998253,-0.7570349140177176,0.19117647058823528
0.39191654767571,-0.7589239187076603,0.19117647058823528
0.3920752022846264,-0.7592821782178217,0.19117647058823528
0.39300729811201013,-0.7608454924439813,0.19117647058823528
0.3934832619387593,-0.7595752996352266,0.19117647058823528
0.39350309376487386,-0.7609431995831162,0.19117647058823528
0.3952681262890687,-0.7644280875455967,0.19117647058823528
0.3978859273361891,-0.7645257946847316,0.19117647058823528
0.39822306838013644,-0.7648840541948931,0.19117647058823528
0.39784626368396003,-0.7654377279833247,0.19117647058823528
0.3999682690782167,-0.7680432516935904,0.19117647058823528
0.40127716960177695,-0.7704207920792079,0.19117647058823528
0.4034785023004918,-0.7705184992183429,0.19117647058823528
0.4030223702998572,-0.7710721730067743,0.19117647058823528
0.40437093447564654,-0.772961177696717,0.19117647058823528
0.4049262256068539,-0.7737428348097968,0.19117647058823528
0.4037759796922101,-0.7733194372068786,0.19117647058823528
0.4040932889100428,-0.7736125586242835,0.19117647058823528
0.4029232111692845,-0.7728309015112037,0.19117647058823528
0.4036966523877519,-0.7740359562272017,0.19117647058823528
0.4016341424718388,-0.7721795205836373,0.19117647058823528
0.4010788513406314,-0.7703556539864512,0.19117647058823528
0.39971045533872757,-0.770225377800938,0.19117647058823528
0.3988180231635729,-0.7684992183428869,0.19117647058823528
0.3980445819451055,-0.7665450755601876,0.19117647058823528
0.39768760907504364,-0.7667404898384576,0.19117647058823528
0.3969538315088053,-0.7656657113079729,0.19117647058823528
0.39326511185149926,-0.7646886399166233,0.19117647058823528
0.39304696176423926,-0.7607803543512246,0.19117647058823528
0.3923726796763446,-0.7612037519541428,0.19117647058823528
0.3914405838489608,-0.7612363210005211,0.19117647058823528
0.39062747897826433,-0.7586307972902553,0.19117647058823528
0.3907464699349516,-0.7582725377800938,0.19117647058823528
0.3914405838489608,-0.758402813965607,0.19117647058823528
0.3912026019355862,-0.7571000521104742,0.19117647058823528
0.39191654767571,-0.7582725377800938,0.19117647058823528
0.3920157068062827,-0.7595427305888484,0.19117647058823528
0.39288830715532286,-0.7607152162584679,0.19117647058823528
0.3943161986355704,-0.7607803543512246,0.19117647058823528
0.3937807393304775,-0.7610083376758728,0.19117647058823528
0.3961605584642234,-0.7622459614382491,0.19117647058823528
0.39723147707440903,-0.7646560708702449,0.19117647058823528
0.39790575916230364,-0.7667079207920792,0.19117647058823528
0.3985800412501983,-0.7662193850964044,0.19117647058823528
0.40018641916547676,-0.770225377800938,0.19117647058823528
0.4021497699508171,-0.7708767587285045,0.19117647058823528
0.4032206885610027,-0.7708441896821261,0.19117647058823528
0.4036966523877519,-0.7731891610213653,0.19117647058823528
0.4027843883864826,-0.7720492443981241,0.19117647058823528
0.40373631603998095,-0.7755341323606045,0.19117647058823528
0.4035379977788355,-0.7719841063053674,0.19117647058823528
0.40274472473425355,-0.7733194372068786,0.19117647058823528
0.40250674282087895,-0.7738079729025534,0.19117647058823528
0.40103918768840235,-0.7719189682126107,0.19117647058823528
0.40064255116611136,-0.7727983324648254,0.19117647058823528
0.4002062509915913,-0.7704207920792079,0.19117647058823528
0.39869903220688563,-0.7702579468473163,0.19117647058823528
0.3974297953355545,-0.7672290255341324,0.19117647058823528
0.3973504680310963,-0.766577644606566,0.19117647058823528
0.39707282246549264,-0.7663170922355393,0.19117647058823528
0.3945740123750595,-0.7654377279833247,0.19117647058823528
0.3932254481992702,-0.7632881709223553,0.19117647058823528
0.3929081389814374,-0.7610409067222512,0.19117647058823528
0.39231318419800093,-0.7600964043772799,0.19117647058823528
0.39118277010947167,-0.7591844710786868,0.19117647058823528
0.39092495636998253,-0.7586959353830119,0.19117647058823528
0.39054815167380613,-0.7589890568004168,0.19117647058823528
0.39100428367444073,-0.7577514330380406,0.19117647058823528
0.3926106615897192,-0.7589890568004168,0.19117647058823528
0.39267015706806285,-0.7592496091714435,0.19117647058823528
0.3928486435030938,-0.7596404377279833,0.19117647058823528
0.39304696176423926,-0.7623762376237624,0.19117647058823528
0.3943161986355704,-0.7612363210005211,0.19117647058823528
0.39659685863874344,-0.7633858780614904,0.19117647058823528
0.39810407742344917,-0.7650143303804064,0.19117647058823528
0.39802475011899097,-0.765568004168838,0.19117647058823528
0.39840155481516737,-0.7650794684731631,0.19117647058823528
0.4011581786450896,-0.7694437206878583,0.19117647058823528
0.4018522925590988,-0.7692808754559667,0.19117647058823528
0.40272489290813895,-0.7717561229807192,0.19117647058823528
0.4026257337775662,-0.7722772277227723,0.19117647058823528
0.40355782960495,-0.7753712871287128,0.19117647058823528
0.4042519435189592,-0.7747199062011464,0.19117647058823528
0.4033793431699191,-0.7752084418968213,0.19117647058823528
0.4033991749960336,-0.7738079729025534,0.19117647058823528
0.40205061082024435,-0.7731240229286086,0.19117647058823528
0.40173330160241155,-0.7717235539343408,0.19117647058823528
0.4012970014278915,-0.7724075039082856,0.19117647058823528
0.40066238299222595,-0.7715281396560709,0.19117647058823528
0.39945264159923843,-0.7681735278791036,0.19117647058823528
0.39826273203236556,-0.76921573736321,0.19117647058823528
0.3967356814215453,-0.7662519541427827,0.19117647058823528
0.3970331588132635,-0.7670010422094841,0.19117647058823528
0.3957242582897033,-0.7642652423137051,0.19117647058823528
0.39366174837379025,-0.7603895257946848,0.19117647058823528
0.393146120894812,-0.759607868681605,0.19117647058823528
0.3928486435030938,-0.759607868681605,0.19117647058823528
0.39173806124067906,-0.7573280354351225,0.19117647058823528
0.39157940663176266,-0.7579142782699323,0.19117647058823528
0.39150007932730446,-0.757784002084419,0.19117647058823528
0.39096462002221166,-0.7582073996873372,0.19117647058823528
0.39165873393622086,-0.7582073996873372,0.19117647058823528
0.39243217515468826,-0.7586633663366337,0.19117647058823528
0.3927693161986356,-0.7600312662845232,0.19117647058823528
0.39211486593685546,-0.7600312662845232,0.19117647058823528
0.3946335078534031,-0.7608454924439813,0.19117647058823528
0.39560526733301604,-0.7633858780614904,0.19117647058823528
0.3970529906393781,-0.7630276185513288,0.19117647058823528
0.39784626368396003,-0.7652748827514331,0.19117647058823528
0.39834205933682376,-0.766382230328296,0.19117647058823528
0.4018522925590988,-0.7692808754559667,0.19117647058823528
0.40272489290813895,-0.7717561229807192,0.19117647058823528
0.4026257337775662,-0.7722772277227723,0.19117647058823528
0.40355782960495,-0.7753712871287128,0.19117647058823528
0.4042519435189592,-0.7747199062011464,0.19117647058823528
0.4033793431699191,-0.7752084418968213,0.19117647058823528
0.4033991749960336,-0.7738079729025534,0.19117647058823528
0.40205061082024435,-0.7731240229286086,0.19117647058823528
0.40173330160241155,-0.7717235539343408,0.19117647058823528
0.4012970014278915,-0.7724075039082856,0.19117647058823528
0.40066238299222595,-0.7715281396560709,0.19117647058823528
0.39945264159923843,-0.7681735278791036,0.19117647058823528
0.39826273203236556,-0.76921573736321,0.19117647058823528
0.3967356814215453,-0.7662519541427827,0.19117647058823528
0.3970331588132635,-0.7670010422094841,0.19117647058823528
0.3957242582897033,-0.7642652423137051,0.19117647058823528
0.39366174837379025,-0.7603895257946848,0.19117647058823528
0.393146120894812,-0.759607868681605,0.19117647058823528
0.3928486435030938,-0.759607868681605,0.19117647058823528
0.39173806124067906,-0.7573280354351225,0.19117647058823528
0.39157940663176266,-0.7579142782699323,0.19117647058823528
0.39150007932730446,-0.757784002084419,0.19117647058823528
0.39096462002221166,-0.7582073996873372,0.19117647058823528
0.39165873393622086,-0.7582073996873372,0.19117647058823528
0.39243217515468826,-0.7586633663366337,0.19117647058823528
0.3927693161986356,-0.7600312662845232,0.19117647058823528
0.39211486593685546,-0.7600312662845232,0.19117647058823528
0.3946335078534031,-0.7608454924439813,0.19117647058823528
0.39560526733301604,-0.7633858780614904,0.19117647058823528
0.3970529906393781,-0.7630276185513288,0.19117647058823528
0.39784626368396003,-0.7652748827514331,0.19117647058823528
0.39834205933682376,-0.766382230328296,0.19117647058823528
0.3993931461208948,-0.7679129755080771,0.19117647058823528
0.40127716960177695,-0.7705184992183429,0.19117647058823528
0.4024869109947644,-0.7713001563314226,0.19117647058823528
0.402943042995399,-0.7722446586763939,0.19117647058823528
0.40447009360621927,-0.7730914538822303,0.19117647058823528
0.4035379977788355,-0.7738405419489317,0.19117647058823528
0.4033198476915754,-0.7732868681605003,0.19117647058823528
0.40359749325717914,-0.7729286086503387,0.19117647058823528
0.40335951134380454,-0.7737102657634184,0.19117647058823528
0.4030818657782009,-0.7728309015112037,0.19117647058823528
0.4016936379501825,-0.7725052110474205,0.19117647058823528
0.401931619863557,-0.7704859301719645,0.19117647058823528
0.40002776455656036,-0.7690528921313184,0.19117647058823528
0.3985007139457401,-0.7680106826472121,0.19117647058823528
0.39671584959543077,-0.7670336112558624,0.19117647058823528
0.39778676820561637,-0.7664799374674309,0.19117647058823528
0.39713231794383624,-0.765568004168838,0.19117647058823528
0.3950698080279232,-0.760617509119333,0.19117647058823528
0.39374107567824845,-0.7613340281396561,0.19117647058823528
0.3932254481992702,-0.7591844710786868,0.19117647058823528
0.39288830715532286,-0.7582725377800938,0.19117647058823528
0.3920553704585118,-0.758793642522147,0.19117647058823528
0.3920157068062827,-0.7565138092756644,0.19117647058823528
0.39124226558781533,-0.7576862949452841,0.19117647058823528
0.3919958749801682,-0.7598358520062533,0.19117647058823528
0.3929081389814374,-0.7587610734757686,0.19117647058823528
0.39336427098207205,-0.7589564877540386,0.19117647058823528
0.3930271299381247,-0.7611711829077644,0.19117647058823528
0.3929874662858956,-0.7599009900990099,0.19117647058823528
0.3950103125495796,-0.7611386138613861,0.19117647058823528
0.3957044264635888,-0.7629950495049505,0.19117647058823528
0.39748929081389817,-0.7658611255862429,0.19117647058823528
0.3988973504680311,-0.7642001042209484,0.19117647058823528
0.39909566872917657,-0.7659914017717562,0.19117647058823528
0.401098683166746,-0.7669359041167274,0.19117647058823528
0.40143582421069335,-0.7684340802501303,0.19117647058823528
0.40333967951769,-0.7703882230328296,0.19117647058823528
0.4034190068221482,-0.7738731109953101,0.19117647058823528
0.40258607012533715,-0.7727331943720688,0.19117647058823528
0.4027843883864826,-0.7724075039082856,0.19117647058823528
0.403954466127241,-0.7725052110474205,0.19117647058823528
0.4033000158654609,-0.7730914538822303,0.19117647058823528
0.4023084245597335,-0.7730588848358521,0.19117647058823528
0.40205061082024435,-0.7712675872850443,0.19117647058823528
0.4008607012533714,-0.7706162063574779,0.19117647058823528
0.40058305568776775,-0.7698019801980198,0.19117647058823528
0.39846105029351103,-0.7687923397602918,0.19117647058823528
0.3981635729017928,-0.7675872850442939,0.19117647058823528
0.39768760907504364,-0.767391870766024,0.19117647058823528
0.3966960177693162,-0.766382230328296,0.19117647058823528
0.394375694113914,-0.7642978113600833,0.19117647058823528
0.39374107567824845,-0.7612688900468995,0.19117647058823528
0.39257099793749006,-0.7620831162063575,0.19117647058823528
0.39326511185149926,-0.7592821782178217,0.19117647058823528
0.39064731080437887,-0.7586633663366337,0.19117647058823528
0.3919760431540536,-0.7578165711307973,0.19117647058823528
0.3924520069808028,-0.7581748306409588,0.19117647058823528
0.39110344280501347,-0.7589564877540386,0.19117647058823528
0.39191654767571,-0.7581096925482022,0.19117647058823528
0.3930271299381247,-0.7601615424700364,0.19117647058823528
0.3926899888941774,-0.7599986972381448,0.19117647058823528
0.39382040298270665,-0.7607152162584679,0.19117647058823528
0.39544661272409964,-0.7603895257946848,0.19117647058823528
0.396398540377598,-0.7630601875977071,0.19117647058823528
0.39723147707440903,-0.7648189161021365,0.19117647058823528
0.39814374107567824,-0.7642978113600833,0.19117647058823528
0.3985998730763129,-0.7665450755601876,0.19117647058823528
0.4007615421227987,-0.7687923397602918,0.19117647058823528
0.4016143106457243,-0.7686620635747785,0.19117647058823528
0.4010788513406314,-0.7714955706096925,0.19117647058823528
0.40288354751705535,-0.7710070349140177,0.19117647058823528
0.4030025384737427,-0.7722446586763939,0.19117647058823528
0.40320085673488815,-0.772961177696717,0.19117647058823528
0.4037958115183246,-0.7725052110474205,0.19117647058823528
0.40250674282087895,-0.771951537258989,0.19117647058823528
0.4026852292559099,-0.7728634705575821,0.19117647058823528
0.40197128351578615,-0.7727983324648254,0.19117647058823528
0.40135649690623515,-0.7718538301198541,0.19117647058823528
0.4004045692527368,-0.7692483064095883,0.19117647058823528
0.3993931461208948,-0.7685969254820219,0.19117647058823528
0.39869903220688563,-0.7676198540906722,0.19117647058823528
0.39861970490242743,-0.7658611255862429,0.19117647058823528
0.39653736316039984,-0.7670987493486191,0.19117647058823528
0.3970331588132635,-0.7648189161021365,0.19117647058823528
0.39259082976360465,-0.761529442417926,0.19117647058823528
0.3921545295890846,-0.7595752996352266,0.19117647058823528
0.39189671584959546,-0.7591193329859302,0.19117647058823528
0.39076630176106614,-0.7593798853569568,0.19117647058823528
0.3903696652387752,-0.7583376758728504,0.19117647058823528
0.39185705219736633,-0.7592496091714435,0.19117647058823528
0.3908257972394098,-0.7571000521104742,0.19117647058823528
0.39177772489290813,-0.7584679520583637,0.19117647058823528
0.39243217515468826,-0.7593147472642001,0.19117647058823528
0.3927098207202919,-0.7588262115685253,0.19117647058823528
0.3938798984610503,-0.7589239187076603,0.19117647058823528
0.3946930033317468,-0.7603243877019281,0.19117647058823528
0.39723147707440903,-0.7648189161021365,0.19117647058823528
0.39814374107567824,-0.7642978113600833,0.19117647058823528
0.3985998730763129,-0.7665450755601876,0.19117647058823528
0.4007615421227987,-0.7687923397602918,0.19117647058823528
0.4016143106457243,-0.7686620635747785,0.19117647058823528
0.4010788513406314,-0.7714955706096925,0.19117647058823528
0.40288354751705535,-0.7710070349140177,0.19117647058823528
0.4030025384737427,-0.7722446586763939,0.19117647058823528
0.40320085673488815,-0.772961177696717,0.19117647058823528
0.4037958115183246,-0.7725052110474205,0.19117647058823528
0.40250674282087895,-0.771951537258989,0.19117647058823528
0.4026852292559099,-0.7728634705575821,0.19117647058823528
0.40197128351578615,-0.7727983324648254,0.19117647058823528
0.40135649690623515,-0.7718538301198541,0.19117647058823528
0.4004045692527368,-0.7692483064095883,0.19117647058823528
0.3993931461208948,-0.7685969254820219,0.19117647058823528
0.39869903220688563,-0.7676198540906722,0.19117647058823528
0.39861970490242743,-0.7658611255862429,0.19117647058823528
0.39653736316039984,-0.7670987493486191,0.19117647058823528
0.3970331588132635,-0.7648189161021365,0.19117647058823528
0.39259082976360465,-0.761529442417926,0.19117647058823528
0.3921545295890846,-0.7595752996352266,0.19117647058823528
0.39189671584959546,-0.7591193329859302,0.19117647058823528
0.39076630176106614,-0.7593798853569568,0.19117647058823528
0.3903696652387752,-0.7583376758728504,0.19117647058823528
0.39185705219736633,-0.7592496091714435,0.19117647058823528
0.3908257972394098,-0.7571000521104742,0.19117647058823528
0.39177772489290813,-0.7584679520583637,0.19117647058823528
0.39243217515468826,-0.7593147472642001,0.19117647058823528
0.3927098207202919,-0.7588262115685253,0.19117647058823528
0.3938798984610503,-0.7589239187076603,0.19117647058823528
0.3946930033317468,-0.7603243877019281,0.19117647058823528
0.39715214976995084,-0.7619854090672226,0.19117647058823528
0.39691416785657624,-0.7637115685252736,0.19117647058823528
0.3969736633349199,-0.7658936946326211,0.19117647058823528
0.39969062351261303,-0.7654377279833247,0.19117647058823528
0.4010788513406314,-0.766382230328296,0.19117647058823528
0.401316833254006,-0.7696391349661282,0.19117647058823528
0.4027050610820244,-0.7702579468473163,0.19117647058823528
0.4023679200380771,-0.7703882230328296,0.19117647058823528
0.4041131207361574,-0.7725377800937988,0.19117647058823528
0.40397429795335554,-0.7732542991141219,0.19117647058823528
0.4042321116928447,-0.7739382490880667,0.19117647058823528
0.40312152943042995,-0.7738079729025534,0.19117647058823528
0.4024472473425353,-0.7726029181865555,0.19117647058823528
0.4026455656036808,-0.7713978634705576,0.19117647058823528
0.4015548151673806,-0.7711047420531527,0.19117647058823528
0.4005235602094241,-0.7691831683168316,0.19117647058823528
0.400087260034904,-0.7697694111516414,0.19117647058823528
0.39856020942408377,-0.7686620635747785,0.19117647058823528
0.3966960177693162,-0.7674895779051589,0.19117647058823528
0.3978859273361891,-0.764460656591975,0.19117647058823528
0.3969538315088053,-0.7645257946847316,0.19117647058823528
0.3931659527209265,-0.7622785304846275,0.19117647058823528
0.39366174837379025,-0.7603895257946848,0.19117647058823528
0.39219419324131366,-0.758793642522147,0.19117647058823528
0.39247183880691733,-0.7569046378322043,0.19117647058823528
0.3912026019355862,-0.7591519020323085,0.19117647058823528
0.39171822941456447,-0.7593798853569568,0.19117647058823528
0.39171822941456447,-0.7589239187076603,0.19117647058823528
0.391301761066159,-0.7585005211047421,0.19117647058823528
0.39328494367761385,-0.7597707139134966,0.19117647058823528
0.39405838489608125,-0.758793642522147,0.19117647058823528
0.3938600666349357,-0.7612037519541428,0.19117647058823528
0.39715214976995084,-0.7619854090672226,0.19117647058823528
0.39691416785657624,-0.7637115685252736,0.19117647058823528
0.3969736633349199,-0.7658936946326211,0.19117647058823528
0.39969062351261303,-0.7654377279833247,0.19117647058823528
0.4010788513406314,-0.766382230328296,0.19117647058823528
0.401316833254006,-0.7696391349661282,0.19117647058823528
0.4027050610820244,-0.7702579468473163,0.19117647058823528
0.4023679200380771,-0.7703882230328296,0.19117647058823528
0.4041131207361574,-0.7725377800937988,0.19117647058823528
0.40397429795335554,-0.7732542991141219,0.19117647058823528
0.4042321116928447,-0.7739382490880667,0.19117647058823528
0.40312152943042995,-0.7738079729025534,0.19117647058823528
0.4024472473425353,-0.7726029181865555,0.19117647058823528
0.4026455656036808,-0.7713978634705576,0.19117647058823528
0.4015548151673806,-0.7711047420531527,0.19117647058823528
0.4005235602094241,-0.7691831683168316,0.19117647058823528
0.400087260034904,-0.7697694111516414,0.19117647058823528
0.39856020942408377,-0.7686620635747785,0.19117647058823528
0.3966960177693162,-0.7674895779051589,0.19117647058823528
0.3978859273361891,-0.764460656591975,0.19117647058823528
0.3969538315088053,-0.7645257946847316,0.19117647058823528
0.3931659527209265,-0.7622785304846275,0.19117647058823528
0.39366174837379025,-0.7603895257946848,0.19117647058823528
0.39219419324131366,-0.758793642522147,0.19117647058823528
0.39247183880691733,-0.7569046378322043,0.19117647058823528
0.3912026019355862,-0.7591519020323085,0.19117647058823528
0.39171822941456447,-0.7593798853569568,0.19117647058823528
0.39171822941456447,-0.7589239187076603,0.19117647058823528
0.391301761066159,-0.7585005211047421,0.19117647058823528
0.39328494367761385,-0.7597707139134966,0.19117647058823528
0.39405838489608125,-0.758793642522147,0.19117647058823528
0.3938600666349357,-0.7612037519541428,0.19117647058823528
0.3939988894177376,-0.7613014590932777,0.19117647058823528
0.3954664445502142,-0.7612363210005211,0.19117647058823528
0.3962597175947961,-0.7623762376237624,0.19117647058823528
0.3968546723782326,-0.7646560708702449,0.19117647058823528
0.39848088211962557,-0.7663496612819176,0.19117647058823528
0.39911550055529116,-0.7685643564356436,0.19117647058823528
0.4000475963826749,-0.7701928087545596,0.19117647058823528
0.40125733777566236,-0.7706487754038561,0.19117647058823528
0.4023877518641917,-0.7705510682647212,0.19117647058823528
0.4037164842138664,-0.7730914538822303,0.19117647058823528
0.4034190068221482,-0.7741988014590933,0.19117647058823528
0.4037561478660955,-0.7748827514330381,0.19117647058823528
0.402943042995399,-0.7737102657634184,0.19117647058823528
0.4031413612565445,-0.7756318394997395,0.19117647058823528
0.4015548151673806,-0.7738405419489317,0.19117647058823528
0.4016143106457243,-0.7727983324648254,0.19117647058823528
0.4017531334285261,-0.774166232412715,0.19117647058823528
0.4014556560368079,-0.7708767587285045,0.19117647058823528
0.39863953672854197,-0.7692808754559667,0.19117647058823528
0.39733063620498177,-0.7679455445544554,0.19117647058823528
0.39784626368396003,-0.7671638874413758,0.19117647058823528
0.39651753133428524,-0.7669359041167274,0.19117647058823528
0.394157544026654,-0.7641349661281918,0.19117647058823528
0.3937807393304775,-0.763353309015112,0.19117647058823528
0.392749484372521,-0.7630276185513288,0.19117647058823528
0.3933047755037284,-0.7619854090672226,0.19117647058823528
0.39100428367444073,-0.7599009900990099,0.19117647058823528
0.39034983341266066,-0.758598228243877,0.19117647058823528
0.3914802475011899,-0.7578491401771756,0.19117647058823528
0.39134142471838806,-0.7588262115685253,0.19117647058823528
0.3921545295890846,-0.7582073996873372,0.19117647058823528
0.39265032524194826,-0.7612688900468995,0.19117647058823528
0.3920157068062827,-0.7606826472120897,0.19117647058823528
0.3939592257655085,-0.7626367899947889,0.19117647058823528
0.3953276217674123,-0.7636138613861386,0.19117647058823528
0.39643820402982705,-0.76436294945284,0.19117647058823528
0.3974694589877836,-0.7654377279833247,0.19117647058823528
0.3979652546406473,-0.7680432516935904,0.19117647058823528
0.3984213866412819,-0.7678478374153205,0.19117647058823528
0.39988894177375855,-0.7701602397081814,0.19117647058823528
0.4004640647310804,-0.7708441896821261,0.19117647058823528
0.4024869109947644,-0.7717886920270974,0.19117647058823528
0.40197128351578615,-0.7734822824387702,0.19117647058823528
0.4033000158654609,-0.7733845752996352,0.19117647058823528
0.40195145168967156,-0.7718863991662324,0.19117647058823528
0.4036371569094082,-0.7727006253256905,0.19117647058823528
0.4026059019514517,-0.7744593538301199,0.19117647058823528
0.4024869109947644,-0.7734822824387702,0.19117647058823528
0.4014556560368079,-0.7727983324648254,0.19117647058823528
0.4012375059495478,-0.7709744658676394,0.19117647058823528
0.40072187847056956,-0.7706162063574779,0.19117647058823528
0.39976995081707123,-0.7715607087024492,0.19117647058823528
0.39786609551007457,-0.7708116206357478,0.19117647058823528
0.3968150087260035,-0.7672615945805107,0.19117647058823528
0.397013326987149,-0.7669359041167274,0.19117647058823528
0.3953077899412978,-0.7637767066180302,0.19117647058823528
0.3931064572425829,-0.763548723293382,0.19117647058823528
0.3928288116769792,-0.7607803543512246,0.19117647058823528
0.39267015706806285,-0.7603569567483064,0.19117647058823528
0.39126209741392987,-0.758402813965607,0.19117647058823528
0.39223385689354273,-0.7589890568004168,0.19117647058823528
0.39146041567507533,-0.7584679520583637,0.19117647058823528
0.39084562906552434,-0.7594775924960917,0.19117647058823528
0.39116293828335713,-0.7595101615424701,0.19117647058823528
0.3920157068062827,-0.7606826472120897,0.19117647058823528
0.3939592257655085,-0.7626367899947889,0.19117647058823528
0.3953276217674123,-0.7636138613861386,0.19117647058823528
0.39643820402982705,-0.76436294945284,0.19117647058823528
0.3974694589877836,-0.7654377279833247,0.19117647058823528
0.3979652546406473,-0.7680432516935904,0.19117647058823528
0.3984213866412819,-0.7678478374153205,0.19117647058823528
0.39988894177375855,-0.7701602397081814,0.19117647058823528
0.4004640647310804,-0.7708441896821261,0.19117647058823528
0.4024869109947644,-0.7717886920270974,0.19117647058823528
0.40197128351578615,-0.7734822824387702,0.19117647058823528
0.4033000158654609,-0.7733845752996352,0.19117647058823528
0.40195145168967156,-0.7718863991662324,0.19117647058823528
0.4036371569094082,-0.7727006253256905,0.19117647058823528
0.4026059019514517,-0.7744593538301199,0.19117647058823528
0.4024869109947644,-0.7734822824387702,0.19117647058823528
0.4014556560368079,-0.7727983324648254,0.19117647058823528
0.4012375059495478,-0.7709744658676394,0.19117647058823528
0.40072187847056956,-0.7706162063574779,0.19117647058823528
0.39976995081707123,-0.7715607087024492,0.19117647058823528
0.39786609551007457,-0.7708116206357478,0.19117647058823528
0.3968150087260035,-0.7672615945805107,0.19117647058823528
0.397013326987149,-0.7669359041167274,0.19117647058823528
0.3953077899412978,-0.7637767066180302,0.19117647058823528
0.3931064572425829,-0.763548723293382,0.19117647058823528
0.3928288116769792,-0.7607803543512246,0.19117647058823528
0.39267015706806285,-0.7603569567483064,0.19117647058823528
0.39126209741392987,-0.758402813965607,0.19117647058823528
0.39223385689354273,-0.7589890568004168,0.19117647058823528
0.39146041567507533,-0.7584679520583637,0.19117647058823528
0.39084562906552434,-0.7594775924960917,0.19117647058823528
0.39116293828335713,-0.7595101615424701,0.19117647058823528
0.39181738854513726,-0.7589564877540386,0.19117647058823528
0.3933246073298429,-0.7612363210005211,0.19117647058823528
0.3927891480247501,-0.7609106305367379,0.19117647058823528
0.3936815801999048,-0.7600638353309015,0.19117647058823528
0.3955457718546724,-0.7620179781136008,0.19117647058823528
0.39729097255275264,-0.763548723293382,0.19117647058823528
0.3971918134221799,-0.765372589890568,0.19117647058823528
0.3972711407266381,-0.765372589890568,0.19117647058823528
0.39957163255592576,-0.7694437206878583,0.19117647058823528
0.40064255116611136,-0.7709093277748827,0.19117647058823528
0.4018522925590988,-0.7710070349140177,0.19117647058823528
0.4014556560368079,-0.7727657634184472,0.19117647058823528
0.40343883864826274,-0.7725052110474205,0.19117647058823528
0.4023679200380771,-0.7728634705575821,0.19117647058823528
0.40133666508012056,-0.7740359562272017,0.19117647058823528
0.40127716960177695,-0.7718863991662324,0.19117647058823528
0.4017927970807552,-0.7736125586242835,0.19117647058823528
0.4009201967317151,-0.7730914538822303,0.19117647058823528
0.4011581786450896,-0.7739056800416884,0.19117647058823528
0.4006822148183405,-0.7711698801459094,0.19117647058823528
0.3993534824686657,-0.7717886920270974,0.19117647058823528
0.39834205933682376,-0.7708767587285045,0.19117647058823528
0.3969538315088053,-0.767391870766024,0.19117647058823528
0.3955656036807869,-0.7659914017717562,0.19117647058823528
0.39520863081072505,-0.7654702970297029,0.19117647058823528
0.3936220847215612,-0.7629299114121939,0.19117647058823528
0.39267015706806285,-0.762539082855654,0.19117647058823528
0.39181738854513726,-0.760422094841063,0.19117647058823528
0.39096462002221166,-0.759803282959875,0.19117647058823528
0.3898143741075678,-0.758793642522147,0.19117647058823528
0.38961605584642234,-0.7582399687337155,0.19117647058823528
0.39092495636998253,-0.757588587806149,0.19117647058823528
0.3913612565445026,-0.7594450234497134,0.19117647058823528
0.39110344280501347,-0.7582725377800938,0.19117647058823528
0.39193637950182453,-0.7602266805627931,0.19117647058823528
0.39296763445978106,-0.7613340281396561,0.19117647058823528
0.3930667935903538,-0.7619202709744659,0.19117647058823528
0.3947921624623195,-0.7623762376237624,0.19117647058823528
0.3960812311597652,-0.7628647733194373,0.19117647058823528
0.3958432492463906,-0.766186816050026,0.19117647058823528
0.39752895446612724,-0.7663170922355393,0.19117647058823528
0.39770744090115817,-0.7675547159979156,0.19117647058823528
0.39994843725210216,-0.7691831683168316,0.19117647058823528
0.4009796922100587,-0.7700951016154247,0.19117647058823528
0.4016738061240679,-0.7726029181865555,0.19117647058823528
0.4028438838648263,-0.7734822824387702,0.19117647058823528
0.40280422021259715,-0.7743616466909848,0.19117647058823528
0.4024075836903062,-0.7731240229286086,0.19117647058823528
0.4019117880374425,-0.7746547681083897,0.19117647058823528
0.40173330160241155,-0.773156591974987,0.19117647058823528
0.4016341424718388,-0.7728309015112037,0.19117647058823528
0.40135649690623515,-0.773156591974987,0.19117647058823528
0.4009796922100587,-0.7722772277227723,0.19117647058823528
0.39961129620815483,-0.7715281396560709,0.19117647058823528
0.39832222751070917,-0.7711047420531527,0.19117647058823528
0.39760828177058544,-0.767294163626889,0.19117647058823528
0.39663652229097257,-0.7665125065138093,0.19117647058823528
0.3958829128986197,-0.7647537780093799,0.19117647058823528
0.394375694113914,-0.76455836373111,0.19117647058823528
0.3926899888941774,-0.7620179781136008,0.19117647058823528
0.39247183880691733,-0.7601615424700364,0.19117647058823528
0.39265032524194826,-0.760519801980198,0.19117647058823528
0.3916389021101063,-0.7576862949452841,0.19117647058823528
0.39100428367444073,-0.7579142782699323,0.19117647058823528
0.39181738854513726,-0.7589564877540386,0.19117647058823528
0.3933246073298429,-0.7612363210005211,0.19117647058823528
0.3927891480247501,-0.7609106305367379,0.19117647058823528
0.3936815801999048,-0.7600638353309015,0.19117647058823528
0.3955457718546724,-0.7620179781136008,0.19117647058823528
0.39729097255275264,-0.763548723293382,0.19117647058823528
0.3971918134221799,-0.765372589890568,0.19117647058823528
0.3972711407266381,-0.765372589890568,0.19117647058823528
0.39957163255592576,-0.7694437206878583,0.19117647058823528
0.40064255116611136,-0.7709093277748827,0.19117647058823528
0.4018522925590988,-0.7710070349140177,0.19117647058823528
0.4014556560368079,-0.7727657634184472,0.19117647058823528
0.40343883864826274,-0.7725052110474205,0.19117647058823528
0.4023679200380771,-0.7728634705575821,0.19117647058823528
0.40133666508012056,-0.7740359562272017,0.19117647058823528
0.40127716960177695,-0.7718863991662324,0.19117647058823528
0.4017927970807552,-0.7736125586242835,0.19117647058823528
0.4009201967317151,-0.7730914538822303,0.19117647058823528
0.4011581786450896,-0.7739056800416884,0.19117647058823528
0.4006822148183405,-0.7711698801459094,0.19117647058823528
0.3993534824686657,-0.7717886920270974,0.19117647058823528
0.39834205933682376,-0.7708767587285045,0.19117647058823528
0.3969538315088053,-0.767391870766024,0.19117647058823528
0.3955656036807869,-0.7659914017717562,0.19117647058823528
0.39520863081072505,-0.7654702970297029,0.19117647058823528
0.3936220847215612,-0.7629299114121939,0.19117647058823528
0.39267015706806285,-0.762539082855654,0.19117647058823528
0.39181738854513726,-0.760422094841063,0.19117647058823528
0.39096462002221166,-0.759803282959875,0.19117647058823528
0.3898143741075678,-0.758793642522147,0.19117647058823528
0.38961605584642234,-0.7582399687337155,0.19117647058823528
0.39092495636998253,-0.757588587806149,0.19117647058823528
0.3913612565445026,-0.7594450234497134,0.19117647058823528
0.39110344280501347,-0.7582725377800938,0.19117647058823528
0.39193637950182453,-0.7602266805627931,0.19117647058823528
0.39296763445978106,-0.7613340281396561,0.19117647058823528
0.3930667935903538,-0.7619202709744659,0.19117647058823528
0.3947921624623195,-0.7623762376237624,0.19117647058823528
0.3960812311597652,-0.7628647733194373,0.19117647058823528
0.3958432492463906,-0.766186816050026,0.19117647058823528
0.39752895446612724,-0.7663170922355393,0.19117647058823528
0.39770744090115817,-0.7675547159979156,0.19117647058823528
0.39994843725210216,-0.7691831683168316,0.19117647058823528
0.4009796922100587,-0.7700951016154247,0.19117647058823528
0.4016738061240679,-0.7726029181865555,0.19117647058823528
0.4028438838648263,-0.7734822824387702,0.19117647058823528
0.40280422021259715,-0.7743616466909848,0.19117647058823528
0.4024075836903062,-0.7731240229286086,0.19117647058823528
0.4019117880374425,-0.7746547681083897,0.19117647058823528
0.40173330160241155,-0.773156591974987,0.19117647058823528
0.4016341424718388,-0.7728309015112037,0.19117647058823528
0.40135649690623515,-0.773156591974987,0.19117647058823528
0.4009796922100587,-0.7722772277227723,0.19117647058823528
0.39961129620815483,-0.7715281396560709,0.19117647058823528
0.39832222751070917,-0.7711047420531527,0.19117647058823528
0.39760828177058544,-0.767294163626889,0.19117647058823528
0.39663652229097257,-0.7665125065138093,0.19117647058823528
0.3958829128986197,-0.7647537780093799,0.19117647058823528
0.394375694113914,-0.76455836373111,0.19117647058823528
0.3926899888941774,-0.7620179781136008,0.19117647058823528
0.39247183880691733,-0.7601615424700364,0.19117647058823528
0.39265032524194826,-0.760519801980198,0.19117647058823528
0.3916389021101063,-0.7576862949452841,0.19117647058823528
0.39100428367444073,-0.7579142782699323,0.19117647058823528
0.39326511185149926,-0.758793642522147,0.19117647058823528
0.3909844518483262,-0.7611060448150078,0.19117647058823528
0.39251150245914646,-0.7581748306409588,0.19117647058823528
0.3923726796763446,-0.7602918186555497,0.19117647058823528
0.39312628906869745,-0.7597707139134966,0.19117647058823528
0.3934039346343011,-0.7611060448150078,0.19117647058823528
0.39435586228779945,-0.7624739447628973,0.19117647058823528
0.3959424083769634,-0.7625716519020324,0.19117647058823528
0.3966563541170871,-0.7640372589890568,0.19117647058823528
0.3986593685546565,-0.766382230328296,0.19117647058823528
0.39784626368396003,-0.7687923397602918,0.19117647058823528
0.4006227193399968,-0.7699648254299114,0.19117647058823528
0.4009995240361732,-0.7718538301198541,0.19117647058823528
0.40080120577502776,-0.7717561229807192,0.19117647058823528
0.40095986038394416,-0.774166232412715,0.19117647058823528
0.4023877518641917,-0.7736451276706618,0.19117647058823528
0.4027050610820244,-0.7745896300156332,0.19117647058823528
0.4026455656036808,-0.7756318394997395,0.19117647058823528
0.4017531334285261,-0.7745570609692548,0.19117647058823528
0.4022290972552753,-0.7735799895779052,0.19117647058823528
0.4018721243852134,-0.7729937467430954,0.19117647058823528
0.39973028716484216,-0.7735148514851485,0.19117647058823528
0.3998294462954149,-0.7718863991662324,0.19117647058823528
0.39854037759796923,-0.7707790515893694,0.19117647058823528
0.39826273203236556,-0.7682712350182387,0.19117647058823528
0.39715214976995084,-0.7677501302761855,0.19117647058823528
0.3970331588132635,-0.7679129755080771,0.19117647058823528
0.3953276217674123,-0.7651446065659198,0.19117647058823528
0.3930866254164683,-0.7626693590411673,0.19117647058823528
0.39219419324131366,-0.7619202709744659,0.19117647058823528
0.39223385689354273,-0.7618877019280875,0.19117647058823528
0.390905124543868,-0.7610409067222512,0.19117647058823528
0.39134142471838806,-0.7579142782699323,0.19117647058823528
0.3913810883706172,-0.7582399687337155,0.19117647058823528
0.3913810883706172,-0.759803282959875,0.19117647058823528
0.39193637950182453,-0.7597707139134966,0.19117647058823528
0.3911431064572426,-0.7600312662845232,0.19117647058823528
0.3920950341107409,-0.7618877019280875,0.19117647058823528
0.3924520069808028,-0.7598358520062533,0.19117647058823528
0.3943360304616849,-0.763353309015112,0.19117647058823528
0.3951094716801523,-0.7639721208963002,0.19117647058823528
0.3964778676820562,-0.7656657113079729,0.19117647058823528
0.39713231794383624,-0.7668381969775925,0.19117647058823528
0.3975487862922418,-0.7658611255862429,0.19117647058823528
0.400087260034904,-0.7682386659718603,0.19117647058823528
0.40119784229731875,-0.7726354872329338,0.19117647058823528
0.4009796922100587,-0.7707464825429912,0.19117647058823528
0.40173330160241155,-0.7739056800416884,0.19117647058823528
0.4030223702998572,-0.7749478895257946,0.19117647058823528
0.40328018403934635,-0.7735148514851485,0.19117647058823528
0.4029827066476281,-0.7735148514851485,0.19117647058823528
0.40218943360304615,-0.7748501823866597,0.19117647058823528
0.4022885927336189,-0.7730914538822303,0.19117647058823528
0.4007615421227987,-0.7736125586242835,0.19117647058823528
0.4016341424718388,-0.7746547681083897,0.19117647058823528
0.3995121370775821,-0.7713001563314226,0.19117647058823528
0.3989766777724893,-0.7706162063574779,0.19117647058823528
0.39748929081389817,-0.7680758207399687,0.19117647058823528
0.39717198159606537,-0.7665450755601876,0.19117647058823528
0.3968150087260035,-0.767391870766024,0.19117647058823528
0.3957044264635888,-0.7657308494007296,0.19117647058823528
0.3938005711565921,-0.7629624804585722,0.19117647058823528
0.39231318419800093,-0.7618551328817093,0.19117647058823528
0.39142075202284626,-0.7618225638353309,0.19117647058823528
0.39134142471838806,-0.7579142782699323,0.19117647058823528
0.3913810883706172,-0.7582399687337155,0.19117647058823528
0.3913810883706172,-0.759803282959875,0.19117647058823528
0.39193637950182453,-0.7597707139134966,0.19117647058823528
0.3911431064572426,-0.7600312662845232,0.19117647058823528
0.3920950341107409,-0.7618877019280875,0.19117647058823528
0.3924520069808028,-0.7598358520062533,0.19117647058823528
0.3943360304616849,-0.763353309015112,0.19117647058823528
0.3951094716801523,-0.7639721208963002,0.19117647058823528
0.3964778676820562,-0.7656657113079729,0.19117647058823528
0.39713231794383624,-0.7668381969775925,0.19117647058823528
0.3975487862922418,-0.7658611255862429,0.19117647058823528
0.400087260034904,-0.7682386659718603,0.19117647058823528
0.40119784229731875,-0.7726354872329338,0.19117647058823528
0.4009796922100587,-0.7707464825429912,0.19117647058823528
0.40173330160241155,-0.7739056800416884,0.19117647058823528
0.4030223702998572,-0.7749478895257946,0.19117647058823528
0.40328018403934635,-0.7735148514851485,0.19117647058823528
0.4029827066476281,-0.7735148514851485,0.19117647058823528
0.40218943360304615,-0.7748501823866597,0.19117647058823528
0.4022885927336189,-0.7730914538822303,0.19117647058823528
0.4007615421227987,-0.7736125586242835,0.19117647058823528
0.4016341424718388,-0.7746547681083897,0.19117647058823528
0.3995121370775821,-0.7713001563314226,0.19117647058823528
0.3989766777724893,-0.7706162063574779,0.19117647058823528
0.39748929081389817,-0.7680758207399687,0.19117647058823528
0.39717198159606537,-0.7665450755601876,0.19117647058823528
0.3968150087260035,-0.767391870766024,0.19117647058823528
0.3957044264635888,-0.7657308494007296,0.19117647058823528
0.3938005711565921,-0.7629624804585722,0.19117647058823528
0.39231318419800093,-0.7618551328817093,0.19117647058823528
0.39142075202284626,-0.7618225638353309,0.19117647058823528
0.39187688402348086,-0.7603243877019281,0.19117647058823528
0.3911431064572426,-0.7599661281917666,0.19117647058823528
0.39124226558781533,-0.7588587806149036,0.19117647058823528
0.39124226558781533,-0.7588262115685253,0.19117647058823528
0.39134142471838806,-0.7597381448671183,0.19117647058823528
0.3922140250674282,-0.7582073996873372,0.19117647058823528
0.39300729811201013,-0.7597381448671183,0.19117647058823528
0.3924123433285737,-0.7593798853569568,0.19117647058823528
0.3939592257655085,-0.7615945805106826,0.19117647058823528
0.3951887989846105,-0.7633207399687337,0.19117647058823528
0.39512930350626685,-0.7639395518499218,0.19117647058823528
0.39778676820561637,-0.7663496612819176,0.19117647058823528
0.39731080437886723,-0.7669033350703491,0.19117647058823528
0.39834205933682376,-0.7677501302761855,0.19117647058823528
0.39957163255592576,-0.7688574778530485,0.19117647058823528
0.40010709186101856,-0.7719189682126107,0.19117647058823528
0.402546406473108,-0.7730914538822303,0.19117647058823528
0.4029827066476281,-0.7743290776446066,0.19117647058823528
0.40290337934316994,-0.7726680562793121,0.19117647058823528
0.4024869109947644,-0.774166232412715,0.19117647058823528
0.4031016976043154,-0.7747199062011464,0.19117647058823528
0.4020902744724734,-0.7739056800416884,0.19117647058823528
0.4022092654291607,-0.7730914538822303,0.19117647058823528
0.40088053307948596,-0.7735474205315268,0.19117647058823528
0.40127716960177695,-0.7726029181865555,0.19117647058823528
0.3994328097731239,-0.7717235539343408,0.19117647058823528
0.39830239568459463,-0.7711047420531527,0.19117647058823528
0.39786609551007457,-0.7684340802501303,0.19117647058823528
0.39715214976995084,-0.767391870766024,0.19117647058823528
0.3962795494209107,-0.7648840541948931,0.19117647058823528
0.3936419165476757,-0.7631253256904638,0.19117647058823528
0.39304696176423926,-0.7618877019280875,0.19117647058823528
0.39165873393622086,-0.7627670661803022,0.19117647058823528
0.3927693161986356,-0.7599986972381448,0.19117647058823528
0.39084562906552434,-0.7583376758728504,0.19117647058823528
0.39157940663176266,-0.7590216258467952,0.19117647058823528
0.39259082976360465,-0.7584353830119854,0.19117647058823528
0.39112327463112806,-0.7588913496612819,0.19117647058823528
0.3936220847215612,-0.7579468473163106,0.19117647058823528
0.3926106615897192,-0.7588587806149036,0.19117647058823528
0.39405838489608125,-0.7591844710786868,0.19117647058823528
0.39288830715532286,-0.7629950495049505,0.19117647058823528
0.3951887989846105,-0.7605849400729546,0.19117647058823528
0.3959225765508488,-0.7629950495049505,0.19117647058823528
0.39748929081389817,-0.766186816050026,0.19117647058823528
0.3993931461208948,-0.766382230328296,0.19117647058823528
0.39856020942408377,-0.7665125065138093,0.19117647058823528
0.40111851499286055,-0.7676524231370505,0.19117647058823528
0.4017531334285261,-0.7706487754038561,0.19117647058823528
0.40242741551642075,-0.7707790515893694,0.19117647058823528
0.4018324607329843,-0.7717235539343408,0.19117647058823528
0.40266539742979535,-0.7748176133402814,0.19117647058823528
0.4024472473425353,-0.7717886920270974,0.19117647058823528
0.40211010629858795,-0.7735799895779052,0.19117647058823528
0.4013763287323497,-0.7733194372068786,0.19117647058823528
0.40205061082024435,-0.7740033871808234,0.19117647058823528
0.4024869109947644,-0.7742313705054716,0.19117647058823528
0.40127716960177695,-0.7732217300677436,0.19117647058823528
0.4008210376011423,-0.7710721730067743,0.19117647058823528
0.39776693637950183,-0.7692808754559667,0.19117647058823528
0.39867920038077104,-0.7701602397081814,0.19117647058823528
0.39725130890052357,-0.7690203230849401,0.19117647058823528
0.39622005394256704,-0.7670010422094841,0.19117647058823528
0.3953276217674123,-0.7644932256383533,0.19117647058823528
0.394772330636205,-0.7621482542991141,0.19117647058823528
0.3935229255909884,-0.7618877019280875,0.19117647058823528
0.39366174837379025,-0.7597707139134966,0.19117647058823528
0.39033000158654607,-0.7601941115164148,0.19117647058823528
0.39132159289227353,-0.7588913496612819,0.19117647058823528
0.3913612565445026,-0.7582073996873372,0.19117647058823528
0.3917578930667936,-0.7591519020323085,0.19117647058823528
0.39191654767571,-0.7611386138613861,0.19117647058823528
0.39227352054577186,-0.7590867639395519,0.19117647058823528
0.3933246073298429,-0.7607803543512246,0.19117647058823528
0.3940980485483103,-0.7613665971860344,0.19117647058823528
0.395168967158496,-0.7625065138092757,0.19117647058823528
0.39602173568142157,-0.7636789994788953,0.19117647058823528
0.39663652229097257,-0.7649491922876498,0.19117647058823528
0.3970331588132635,-0.7650794684731631,0.19117647058823528
0.39794542281453277,-0.7672615945805107,0.19117647058823528
0.3997501189909567,-0.768206096925482,0.19117647058823528
0.4008408694272569,-0.7725052110474205,0.19117647058823528
0.4014556560368079,-0.7732542991141219,0.19117647058823528
0.40141599238457876,-0.7722772277227723,0.19117647058823528
0.4037561478660955,-0.7736125586242835,0.19117647058823528
0.4027645565603681,-0.7736451276706618,0.19117647058823528
0.4024472473425353,-0.7748176133402814,0.19117647058823528
0.40212993812470255,-0.7747199062011464,0.19117647058823528
0.40189195621132795,-0.7738731109953101,0.19117647058823528
0.40181262890686975,-0.7731240229286086,0.19117647058823528
0.40234808821196255,-0.7719841063053674,0.19117647058823528
0.39957163255592576,-0.7720492443981241,0.19117647058823528
0.398857686815802,-0.7697042730588849,0.19117647058823528
0.3976677772489291,-0.7687272016675352,0.19117647058823528
0.3968150087260035,-0.7670336112558624,0.19117647058823528
0.3962597175947961,-0.7659262636789995,0.19117647058823528
0.394772330636205,-0.7621482542991141,0.19117647058823528
0.3935229255909884,-0.7618877019280875,0.19117647058823528
0.39366174837379025,-0.7597707139134966,0.19117647058823528
0.39033000158654607,-0.7601941115164148,0.19117647058823528
0.39132159289227353,-0.7588913496612819,0.19117647058823528
0.3913612565445026,-0.7582073996873372,0.19117647058823528
0.3917578930667936,-0.7591519020323085,0.19117647058823528
0.39191654767571,-0.7611386138613861,0.19117647058823528
0.39227352054577186,-0.7590867639395519,0.19117647058823528
0.3933246073298429,-0.7607803543512246,0.19117647058823528
0.3940980485483103,-0.7613665971860344,0.19117647058823528
0.395168967158496,-0.7625065138092757,0.19117647058823528
0.39602173568142157,-0.7636789994788953,0.19117647058823528
0.39663652229097257,-0.7649491922876498,0.19117647058823528
0.3970331588132635,-0.7650794684731631,0.19117647058823528
0.39794542281453277,-0.7672615945805107,0.19117647058823528
0.3997501189909567,-0.768206096925482,0.19117647058823528
0.4008408694272569,-0.7725052110474205,0.19117647058823528
0.4014556560368079,-0.7732542991141219,0.19117647058823528
0.40141599238457876,-0.7722772277227723,0.19117647058823528
0.4037561478660955,-0.7736125586242835,0.19117647058823528
0.4027645565603681,-0.7736451276706618,0.19117647058823528
0.4024472473425353,-0.7748176133402814,0.19117647058823528
0.40212993812470255,-0.7747199062011464,0.19117647058823528
0.40189195621132795,-0.7738731109953101,0.19117647058823528
0.40181262890686975,-0.7731240229286086,0.19117647058823528
0.40234808821196255,-0.7719841063053674,0.19117647058823528
0.39957163255592576,-0.7720492443981241,0.19117647058823528
0.398857686815802,-0.7697042730588849,0.19117647058823528
0.3976677772489291,-0.7687272016675352,0.19117647058823528
0.3968150087260035,-0.7670336112558624,0.19117647058823528
0.3962597175947961,-0.7659262636789995,0.19117647058823528
0.39723147707440903,-0.7642978113600833,0.19117647058823528
0.3942368713311122,-0.7609106305367379,0.19117647058823528
0.3931659527209265,-0.7609757686294946,0.19117647058823528
0.39257099793749006,-0.7609431995831162,0.19117647058823528
0.3924520069808028,-0.7597055758207399,0.19117647058823528
0.3920157068062827,-0.7579142782699323,0.19117647058823528
0.39150007932730446,-0.7602266805627931,0.19117647058823528
0.3913612565445026,-0.7599335591453882,0.19117647058823528
0.3927891480247501,-0.7600964043772799,0.19117647058823528
0.39223385689354273,-0.7599661281917666,0.19117647058823528
0.3931659527209265,-0.7583376758728504,0.19117647058823528
0.3930866254164683,-0.7611386138613861,0.19117647058823528
0.3934634301126448,-0.7595101615424701,0.19117647058823528
0.3954069490718705,-0.7627019280875456,0.19117647058823528
0.39629938124702524,-0.763451016154247,0.19117647058823528
0.3968745042043471,-0.765372589890568,0.19117647058823528
0.3976677772489291,-0.7676524231370505,0.19117647058823528
0.39848088211962557,-0.7674244398124023,0.19117647058823528
0.4001269236871331,-0.768401511203752,0.19117647058823528
0.40072187847056956,-0.7706487754038561,0.19117647058823528
0.4025265746469935,-0.770323084940073,0.19117647058823528
0.4028637156909408,-0.7724075039082856,0.19117647058823528
0.4021696017769316,-0.7737428348097968,0.19117647058823528
0.40203077899412976,-0.7726029181865555,0.19117647058823528
0.4027050610820244,-0.7746221990620115,0.19117647058823528
0.4019911153419007,-0.7733194372068786,0.19117647058823528
0.40125733777566236,-0.7743942157373632,0.19117647058823528
0.4016143106457243,-0.7714630015633143,0.19117647058823528
0.4004045692527368,-0.7711047420531527,0.19117647058823528
0.3999087735998731,-0.7704207920792079,0.19117647058823528
0.3978859273361891,-0.7682712350182387,0.19117647058823528
0.39721164524829444,-0.7676524231370505,0.19117647058823528
0.3964183722037125,-0.7664147993746743,0.19117647058823528
0.3959225765508488,-0.766382230328296,0.19117647058823528
0.3933841028081866,-0.7620831162063575,0.19117647058823528
0.3928288116769792,-0.7615620114643044,0.19117647058823528
0.3930667935903538,-0.7596730067743617,0.19117647058823528
0.3924520069808028,-0.7599335591453882,0.19117647058823528
0.3908257972394098,-0.7564486711829078,0.19117647058823528
0.3912224337617008,-0.7588262115685253,0.19117647058823528
0.391301761066159,-0.7589564877540386,0.19117647058823528
0.3914009201967317,-0.759412454403335,0.19117647058823528
0.39189671584959546,-0.759803282959875,0.19117647058823528
0.3922140250674282,-0.7606500781657113,0.19117647058823528
0.39249167063303186,-0.7595427305888484,0.19117647058823528
0.39374107567824845,-0.7604546638874414,0.19117647058823528
0.39499048072346504,-0.7626693590411673,0.19117647058823528
0.39622005394256704,-0.7625065138092757,0.19117647058823528
0.39760828177058544,-0.7649166232412715,0.19117647058823528
0.39770744090115817,-0.7653074517978113,0.19117647058823528
0.39733063620498177,-0.7685643564356436,0.19117647058823528
0.39969062351261303,-0.7686946326211569,0.19117647058823528
0.4010590195145169,-0.7711698801459094,0.19117647058823528
0.4010193558622878,-0.7707790515893694,0.19117647058823528
0.4022489290813898,-0.7732542991141219,0.19117647058823528
0.40328018403934635,-0.7736125586242835,0.19117647058823528
0.4036173250832937,-0.7739382490880667,0.19117647058823528
0.40367682056163734,-0.7732542991141219,0.19117647058823528
0.4019911153419007,-0.7735474205315268,0.19117647058823528
0.40218943360304615,-0.7737102657634184,0.19117647058823528
0.4018721243852134,-0.771137311099531,0.19117647058823528
0.4015944788196097,-0.7728960396039604,0.19117647058823528
0.3999286054259876,-0.7695739968733716,0.19117647058823528
0.398857686815802,-0.7700299635226681,0.19117647058823528
0.39744962716166904,-0.768206096925482,0.19117647058823528
0.39721164524829444,-0.7680758207399687,0.19117647058823528
0.3959225765508488,-0.7659262636789995,0.19117647058823528
0.3945740123750595,-0.763451016154247,0.19117647058823528
0.3938005711565921,-0.7611386138613861,0.19117647058823528
0.3920553704585118,-0.760617509119333,0.19117647058823528
0.39243217515468826,-0.7610409067222512,0.19117647058823528
0.39056798349992067,-0.7585005211047421,0.19117647058823528
0.39070680628272253,-0.7578817092235539,0.19117647058823528
0.3907464699349516,-0.7586633663366337,0.19117647058823528
0.3907464699349516,-0.7577188639916623,0.19117647058823528
0.3913612565445026,-0.7592496091714435,0.19117647058823528
0.3933841028081866,-0.7591844710786868,0.19117647058823528
0.3929081389814374,-0.7600638353309015,0.19117647058823528
0.3942963668094558,-0.7593147472642001,0.19117647058823528
0.39413771220053945,-0.759803282959875,0.19117647058823528
0.3951491353323814,-0.7631904637832204,0.19117647058823528
0.3964183722037125,-0.7649166232412715,0.19117647058823528
0.39740996350943997,-0.7649166232412715,0.19117647058823528
0.3979652546406473,-0.7668707660239709,0.19117647058823528
0.4003649056005077,-0.7677501302761855,0.19117647058823528
0.4004640647310804,-0.7701928087545596,0.19117647058823528
0.40064255116611136,-0.7723097967691506,0.19117647058823528
0.4019911153419007,-0.7721143824908807,0.19117647058823528
0.402943042995399,-0.7736776967170401,0.19117647058823528
0.40288354751705535,-0.7741010943199583,0.19117647058823528
0.4022092654291607,-0.7735799895779052,0.19117647058823528
0.4031413612565445,-0.7738405419489317,0.19117647058823528
0.40242741551642075,-0.7732542991141219,0.19117647058823528
0.40234808821196255,-0.7730914538822303,0.19117647058823528
0.4003649056005077,-0.7726029181865555,0.19117647058823528
0.4006028875138823,-0.7720492443981241,0.19117647058823528
0.3990560050769475,-0.7712024491922876,0.19117647058823528
0.39725130890052357,-0.7699973944762898,0.19117647058823528
0.3974694589877836,-0.767196456487754,0.19117647058823528
0.3967753450737744,-0.7675547159979156,0.19117647058823528
0.3952284626368396,-0.765372589890568,0.19117647058823528
0.39326511185149926,-0.7630927566440855,0.19117647058823528
0.39320561637315565,-0.7619202709744659,0.19117647058823528
0.39187688402348086,-0.7617899947889526,0.19117647058823528
0.3919760431540536,-0.7592170401250652,0.19117647058823528
0.3910637791527844,-0.7582073996873372,0.19117647058823528
0.3916389021101063,-0.7588262115685253,0.19117647058823528
0.39027050610820246,-0.7582725377800938,0.19117647058823528
0.391519911153419,-0.7590867639395519,0.19117647058823528
0.3928486435030938,-0.7602266805627931,0.19117647058823528
0.39171822941456447,-0.7610734757686295,0.19117647058823528
0.39320561637315565,-0.7604546638874414,0.19117647058823528
0.3941773758527685,-0.7624739447628973,0.19117647058823528
0.3947326669839759,-0.7640046899426784,0.19117647058823528
0.396398540377598,-0.7645257946847316,0.19117647058823528
0.39643820402982705,-0.76455836373111,0.19117647058823528
0.3987386958591147,-0.7669033350703491,0.19117647058823528
0.39887751864191656,-0.767196456487754,0.19117647058823528
0.40022608281770583,-0.7699973944762898,0.19117647058823528
0.40290337934316994,-0.7707464825429912,0.19117647058823528
0.401931619863557,-0.7708441896821261,0.19117647058823528
0.40373631603998095,-0.7737428348097968,0.19117647058823528
0.4023084245597335,-0.7733194372068786,0.19117647058823528
0.4022885927336189,-0.7735799895779052,0.19117647058823528
0.4026059019514517,-0.7745244919228765,0.19117647058823528
0.40282405203871174,-0.7736125586242835,0.19117647058823528
0.40165397429795335,-0.7747199062011464,0.19117647058823528
0.4023679200380771,-0.772146951537259,0.19117647058823528
0.3990560050769475,-0.7712024491922876,0.19117647058823528
0.39725130890052357,-0.7699973944762898,0.19117647058823528
0.3974694589877836,-0.767196456487754,0.19117647058823528
0.3967753450737744,-0.7675547159979156,0.19117647058823528
0.3952284626368396,-0.765372589890568,0.19117647058823528
0.39326511185149926,-0.7630927566440855,0.19117647058823528
0.39320561637315565,-0.7619202709744659,0.19117647058823528
0.39187688402348086,-0.7617899947889526,0.19117647058823528
0.3919760431540536,-0.7592170401250652,0.19117647058823528
0.3910637791527844,-0.7582073996873372,0.19117647058823528
0.3916389021101063,-0.7588262115685253,0.19117647058823528
0.39027050610820246,-0.7582725377800938,0.19117647058823528
0.391519911153419,-0.7590867639395519,0.19117647058823528
0.3928486435030938,-0.7602266805627931,0.19117647058823528
0.39171822941456447,-0.7610734757686295,0.19117647058823528
0.39320561637315565,-0.7604546638874414,0.19117647058823528
0.3941773758527685,-0.7624739447628973,0.19117647058823528
0.3947326669839759,-0.7640046899426784,0.19117647058823528
0.396398540377598,-0.7645257946847316,0.19117647058823528
0.39643820402982705,-0.76455836373111,0.19117647058823528
0.3987386958591147,-0.7669033350703491,0.19117647058823528
0.39887751864191656,-0.767196456487754,0.19117647058823528
0.40022608281770583,-0.7699973944762898,0.19117647058823528
0.40290337934316994,-0.7707464825429912,0.19117647058823528
0.401931619863557,-0.7708441896821261,0.19117647058823528
0.40373631603998095,-0.7737428348097968,0.19117647058823528
0.4023084245597335,-0.7733194372068786,0.19117647058823528
0.4022885927336189,-0.7735799895779052,0.19117647058823528
0.4026059019514517,-0.7745244919228765,0.19117647058823528
0.40282405203871174,-0.7736125586242835,0.19117647058823528
0.40165397429795335,-0.7747199062011464,0.19117647058823528
0.4023679200380771,-0.772146951537259,0.19117647058823528
0.3990560050769475,-0.7712024491922876,0.19117647058823528
0.39725130890052357,-0.7699973944762898,0.19117647058823528
0.3974694589877836,-0.767196456487754,0.19117647058823528
0.3967753450737744,-0.7675547159979156,0.19117647058823528
0.3952284626368396,-0.765372589890568,0.19117647058823528
0.39326511185149926,-0.7630927566440855,0.19117647058823528
0.39320561637315565,-0.7619202709744659,0.19117647058823528
0.39187688402348086,-0.7617899947889526,0.19117647058823528
0.3919760431540536,-0.7592170401250652,0.19117647058823528
0.3910637791527844,-0.7582073996873372,0.19117647058823528
0.3916389021101063,-0.7588262115685253,0.19117647058823528
0.39027050610820246,-0.7582725377800938,0.19117647058823528
0.391519911153419,-0.7590867639395519,0.19117647058823528
0.3928486435030938,-0.7602266805627931,0.19117647058823528
0.39171822941456447,-0.7610734757686295,0.19117647058823528
0.39320561637315565,-0.7604546638874414,0.19117647058823528
0.3941773758527685,-0.7624739447628973,0.19117647058823528
0.3947326669839759,-0.7640046899426784,0.19117647058823528
0.396398540377598,-0.7645257946847316,0.19117647058823528
0.39643820402982705,-0.76455836373111,0.19117647058823528
0.3987386958591147,-0.7669033350703491,0.19117647058823528
0.39887751864191656,-0.767196456487754,0.19117647058823528
0.40022608281770583,-0.7699973944762898,0.19117647058823528
0.40290337934316994,-0.7707464825429912,0.19117647058823528
0.401931619863557,-0.7708441896821261,0.19117647058823528
0.40373631603998095,-0.7737428348097968,0.19117647058823528
0.4023084245597335,-0.7733194372068786,0.19117647058823528
0.4022885927336189,-0.7735799895779052,0.19117647058823528
0.4026059019514517,-0.7745244919228765,0.19117647058823528
0.40282405203871174,-0.7736125586242835,0.19117647058823528
0.40165397429795335,-0.7747199062011464,0.19117647058823528
0.4023679200380771,-0.772146951537259,0.19117647058823528
0.4003252419482786,-0.773775403856175,0.19117647058823528
0.39994843725210216,-0.7705836373110996,0.19117647058823528
0.39887751864191656,-0.7703882230328296,0.19117647058823528
0.3964976995081707,-0.7666427826993225,0.19117647058823528
0.3960812311597652,-0.766186816050026,0.19117647058823528
0.39653736316039984,-0.7662193850964044,0.19117647058823528
0.3940782167221958,-0.7637115685252736,0.19117647058823528
0.39350309376487386,-0.7623762376237624,0.19117647058823528
0.39169839758844993,-0.7603895257946848,0.19117647058823528
0.3923330160241155,-0.7599986972381448,0.19117647058823528
0.39096462002221166,-0.7582399687337155,0.19117647058823528
0.39112327463112806,-0.7580771235018239,0.19117647058823528
0.3917578930667936,-0.7581748306409588,0.19117647058823528
0.39132159289227353,-0.7573606044815008,0.19117647058823528
0.39112327463112806,-0.7573280354351225,0.19117647058823528
0.39265032524194826,-0.7579468473163106,0.19117647058823528
0.39227352054577186,-0.7588587806149036,0.19117647058823528
0.39419720767888305,-0.7604546638874414,0.19117647058823528
0.3942567031572267,-0.7617574257425742,0.19117647058823528
0.3958829128986197,-0.7621808233454924,0.19117647058823528
0.3959424083769634,-0.7653400208441897,0.19117647058823528
0.39752895446612724,-0.7653074517978113,0.19117647058823528
0.39840155481516737,-0.7667404898384576,0.19117647058823528
0.3996707916864985,-0.7698996873371547,0.19117647058823528
0.4013763287323497,-0.7716909848879625,0.19117647058823528
0.40149531968903696,-0.7718538301198541,0.19117647058823528
0.40320085673488815,-0.7723749348619072,0.19117647058823528
0.40181262890686975,-0.7745896300156332,0.19117647058823528
0.40226876090750435,-0.7732868681605003,0.19117647058823528
0.4028637156909408,-0.7735799895779052,0.19117647058823528
0.40282405203871174,-0.7744919228764982,0.19117647058823528
0.4030223702998572,-0.7735148514851485,0.19117647058823528
0.4007813739489132,-0.7727006253256905,0.19117647058823528
0.4007615421227987,-0.7708767587285045,0.19117647058823528
0.40056322386165316,-0.7717235539343408,0.19117647058823528
0.3988973504680311,-0.7699973944762898,0.19117647058823528
0.39778676820561637,-0.7686620635747785,0.19117647058823528
0.39667618594320164,-0.7676849921834289,0.19117647058823528
0.39602173568142157,-0.7649491922876498,0.19117647058823528
0.3940980485483103,-0.7642652423137051,0.19117647058823528
0.39366174837379025,-0.7625065138092757,0.19117647058823528
0.39296763445978106,-0.7615945805106826,0.19117647058823528
0.3920553704585118,-0.7593798853569568,0.19117647058823528
0.39007218784705694,-0.7596730067743617,0.19117647058823528
0.39096462002221166,-0.7596404377279833,0.19117647058823528
0.39068697445660794,-0.7587285044293903,0.19117647058823528
0.39062747897826433,-0.7596730067743617,0.19117647058823528
0.3918372203712518,-0.7590541948931735,0.19117647058823528
0.3912026019355862,-0.7594450234497134,0.19117647058823528
0.3923330160241155,-0.760519801980198,0.19117647058823528
0.3942963668094558,-0.7603569567483064,0.19117647058823528
0.3946930033317468,-0.7633207399687337,0.19117647058823528
0.3953474535935269,-0.7639721208963002,0.19117647058823528
0.39709265429160717,-0.7661216779572694,0.19117647058823528
0.3975091226400127,-0.7661216779572694,0.19117647058823528
0.39790575916230364,-0.7662519541427827,0.19117647058823528
0.39953196890369663,-0.7694762897342365,0.19117647058823528
0.40064255116611136,-0.7696717040125065,0.19117647058823528
0.40212993812470255,-0.7720492443981241,0.19117647058823528
0.4017729652546406,-0.7742965085982283,0.19117647058823528
0.40280422021259715,-0.775892391870766,0.19117647058823528
0.4030025384737427,-0.7755341323606045,0.19117647058823528
0.4016936379501825,-0.7731891610213653,0.19117647058823528
0.40304220212597175,-0.7742639395518499,0.19117647058823528
0.4024670791686498,-0.7749478895257946,0.19117647058823528
0.4022885927336189,-0.7747199062011464,0.19117647058823528
0.4013763287323497,-0.7728960396039604,0.19117647058823528
0.3992146596858639,-0.7723749348619072,0.19117647058823528
0.39895684594637476,-0.7715607087024492,0.19117647058823528
0.3980445819451055,-0.770941896821261,0.19117647058823528
0.39663652229097257,-0.7682712350182387,0.19117647058823528
0.3959424083769634,-0.7657634184471078,0.19117647058823528
0.3970331588132635,-0.7654051589369463,0.19117647058823528
0.39403855306996666,-0.7626693590411673,0.19117647058823528
0.39265032524194826,-0.7630276185513288,0.19117647058823528
0.39177772489290813,-0.7608780614903595,0.19117647058823528
0.39134142471838806,-0.7617248566961959,0.19117647058823528
0.3912026019355862,-0.7583702449192288,0.19117647058823528
0.39153974297953353,-0.7594450234497134,0.19117647058823528
0.39189671584959546,-0.7602266805627931,0.19117647058823528
0.3926899888941774,-0.7607152162584679,0.19117647058823528
0.3920157068062827,-0.761529442417926,0.19117647058823528
0.39288830715532286,-0.7609431995831162,0.19117647058823528
0.39326511185149926,-0.7615620114643044,0.19117647058823528
0.39358242106933206,-0.7634835852006253,0.19117647058823528
0.395783753768047,-0.7639721208963002,0.19117647058823528
0.395387117245756,-0.7652423137050547,0.19117647058823528
0.39707282246549264,-0.7646560708702449,0.19117647058823528
0.3982825638584801,-0.767391870766024,0.19117647058823528
0.39915516420752023,-0.7699648254299114,0.19117647058823528
0.400702046644455,-0.7708767587285045,0.19117647058823528
0.401098683166746,-0.7725052110474205,0.19117647058823528
0.4018324607329843,-0.7716258467952058,0.19117647058823528
0.4032405203871172,-0.7749153204794164,0.19117647058823528
0.4033000158654609,-0.7743942157373632,0.19117647058823528
0.40226876090750435,-0.7735799895779052,0.19117647058823528
0.4031611930826591,-0.7760552371026577,0.19117647058823528
0.40189195621132795,-0.7738731109953101,0.19117647058823528
0.4008607012533714,-0.7747199062011464,0.19117647058823528
0.4016143106457243,-0.7721143824908807,0.19117647058823528
0.4009400285578296,-0.7719189682126107,0.19117647058823528
0.39949230525146756,-0.7715281396560709,0.19117647058823528
0.3982825638584801,-0.7705184992183429,0.19117647058823528
0.396616690464858,-0.7675221469515373,0.19117647058823528
0.39643820402982705,-0.7675547159979156,0.19117647058823528
0.3951491353323814,-0.7664147993746743,0.19117647058823528
0.3927891480247501,-0.7637441375716519,0.19117647058823528
0.39259082976360465,-0.7629950495049505,0.19117647058823528
0.39169839758844993,-0.7607803543512246,0.19117647058823528
0.3915992384578772,-0.7614968733715477,0.19117647058823528
0.3901316833254006,-0.7599335591453882,0.19117647058823528
0.3910637791527844,-0.7582073996873372,0.19117647058823528
0.3920553704585118,-0.7586307972902553,0.19117647058823528
0.39153974297953353,-0.757979416362689,0.19117647058823528
0.391519911153419,-0.7594775924960917,0.19117647058823528
0.3924520069808028,-0.7588587806149036,0.19117647058823528
0.3938402348088212,-0.7599009900990099,0.19117647058823528
0.39435586228779945,-0.7590867639395519,0.19117647058823528
0.3939592257655085,-0.7618551328817093,0.19117647058823528
0.3955656036807869,-0.7648189161021365,0.19117647058823528
0.3960812311597652,-0.7655028660760813,0.19117647058823528
0.3984213866412819,-0.7651120375195414,0.19117647058823528
0.39671584959543077,-0.7673593017196456,0.19117647058823528
0.39923449151197843,-0.7710721730067743,0.19117647058823528
0.4010788513406314,-0.7717886920270974,0.19117647058823528
0.40211010629858795,-0.7717561229807192,0.19117647058823528
0.4027050610820244,-0.7737102657634184,0.19117647058823528
0.40272489290813895,-0.7748827514330381,0.19117647058823528
0.4031611930826591,-0.7760552371026577,0.19117647058823528
0.40189195621132795,-0.7738731109953101,0.19117647058823528
0.4008607012533714,-0.7747199062011464,0.19117647058823528
0.4016143106457243,-0.7721143824908807,0.19117647058823528
0.4009400285578296,-0.7719189682126107,0.19117647058823528
0.39949230525146756,-0.7715281396560709,0.19117647058823528
0.3982825638584801,-0.7705184992183429,0.19117647058823528
0.396616690464858,-0.7675221469515373,0.19117647058823528
0.39643820402982705,-0.7675547159979156,0.19117647058823528
0.3951491353323814,-0.7664147993746743,0.19117647058823528
0.3927891480247501,-0.7637441375716519,0.19117647058823528
0.39259082976360465,-0.7629950495049505,0.19117647058823528
0.39169839758844993,-0.7607803543512246,0.19117647058823528
0.3915992384578772,-0.7614968733715477,0.19117647058823528
0.3901316833254006,-0.7599335591453882,0.19117647058823528
0.3910637791527844,-0.7582073996873372,0.19117647058823528
0.3920553704585118,-0.7586307972902553,0.19117647058823528
0.39153974297953353,-0.757979416362689,0.19117647058823528
0.391519911153419,-0.7594775924960917,0.19117647058823528
0.3924520069808028,-0.7588587806149036,0.19117647058823528
0.3938402348088212,-0.7599009900990099,0.19117647058823528
0.39435586228779945,-0.7590867639395519,0.19117647058823528
0.3939592257655085,-0.7618551328817093,0.19117647058823528
0.3955656036807869,-0.7648189161021365,0.19117647058823528
0.3960812311597652,-0.7655028660760813,0.19117647058823528
0.3984213866412819,-0.7651120375195414,0.19117647058823528
0.39671584959543077,-0.7673593017196456,0.19117647058823528
0.39923449151197843,-0.7710721730067743,0.19117647058823528
0.4010788513406314,-0.7717886920270974,0.19117647058823528
0.40211010629858795,-0.7717561229807192,0.19117647058823528
0.4027050610820244,-0.7737102657634184,0.19117647058823528
0.40272489290813895,-0.7748827514330381,0.19117647058823528
0.4038354751705537,-0.7742965085982283,0.19117647058823528
0.4028637156909408,-0.7728309015112037,0.19117647058823528
0.40290337934316994,-0.7719189682126107,0.19117647058823528
0.401931619863557,-0.7726354872329338,0.19117647058823528
0.4022489290813898,-0.7717886920270974,0.19117647058823528
0.40072187847056956,-0.7720492443981241,0.19117647058823528
0.4001467555132477,-0.771332725377801,0.19117647058823528
0.39925432333809296,-0.7706487754038561,0.19117647058823528
0.39778676820561637,-0.7699648254299114,0.19117647058823528
0.3973901316833254,-0.7681083897863471,0.19117647058823528
0.3969736633349199,-0.7669684731631058,0.19117647058823528
0.39574409011581785,-0.7650143303804064,0.19117647058823528
0.3938798984610503,-0.762539082855654,0.19117647058823528
0.39249167063303186,-0.7631578947368421,0.19117647058823528
0.3923330160241155,-0.7611711829077644,0.19117647058823528
0.39034983341266066,-0.7582399687337155,0.19117647058823528
0.3913612565445026,-0.7593473163105784,0.19117647058823528
0.3921545295890846,-0.7594775924960917,0.19117647058823528
0.39126209741392987,-0.759607868681605,0.19117647058823528
0.39187688402348086,-0.7593798853569568,0.19117647058823528
0.39191654767571,-0.7604546638874414,0.19117647058823528
0.39312628906869745,-0.7606826472120897,0.19117647058823528
0.3939393939393939,-0.7607152162584679,0.19117647058823528
0.3932452800253847,-0.7617574257425742,0.19117647058823528
0.3957044264635888,-0.7638418447107869,0.19117647058823528
0.3955656036807869,-0.7636789994788953,0.19117647058823528
0.3968546723782326,-0.7668056279312142,0.19117647058823528
0.39715214976995084,-0.7679129755080771,0.19117647058823528
0.39957163255592576,-0.7687272016675352,0.19117647058823528
0.4008210376011423,-0.7710721730067743,0.19117647058823528
0.4005235602094241,-0.7716258467952058,0.19117647058823528
0.4016738061240679,-0.7746221990620115,0.19117647058823528
0.4038354751705537,-0.7742965085982283,0.19117647058823528
0.4028637156909408,-0.7728309015112037,0.19117647058823528
0.40290337934316994,-0.7719189682126107,0.19117647058823528
0.401931619863557,-0.7726354872329338,0.19117647058823528
0.4022489290813898,-0.7717886920270974,0.19117647058823528
0.40072187847056956,-0.7720492443981241,0.19117647058823528
0.4001467555132477,-0.771332725377801,0.19117647058823528
0.39925432333809296,-0.7706487754038561,0.19117647058823528
0.39778676820561637,-0.7699648254299114,0.19117647058823528
0.3973901316833254,-0.7681083897863471,0.19117647058823528
0.3969736633349199,-0.7669684731631058,0.19117647058823528
0.39574409011581785,-0.7650143303804064,0.19117647058823528
0.3938798984610503,-0.762539082855654,0.19117647058823528
0.39249167063303186,-0.7631578947368421,0.19117647058823528
0.3923330160241155,-0.7611711829077644,0.19117647058823528
0.39034983341266066,-0.7582399687337155,0.19117647058823528
0.3913612565445026,-0.7593473163105784,0.19117647058823528
0.3921545295890846,-0.7594775924960917,0.19117647058823528
0.39126209741392987,-0.759607868681605,0.19117647058823528
0.39187688402348086,-0.7593798853569568,0.19117647058823528
0.39191654767571,-0.7604546638874414,0.19117647058823528
0.39312628906869745,-0.7606826472120897,0.19117647058823528
0.3939393939393939,-0.7607152162584679,0.19117647058823528
0.3932452800253847,-0.7617574257425742,0.19117647058823528
0.3957044264635888,-0.7638418447107869,0.19117647058823528
0.3955656036807869,-0.7636789994788953,0.19117647058823528
0.3968546723782326,-0.7668056279312142,0.19117647058823528
0.39715214976995084,-0.7679129755080771,0.19117647058823528
0.39957163255592576,-0.7687272016675352,0.19117647058823528
0.4008210376011423,-0.7710721730067743,0.19117647058823528
0.4005235602094241,-0.7716258467952058,0.19117647058823528
0.4016738061240679,-0.7746221990620115,0.19117647058823528
0.4038354751705537,-0.7742965085982283,0.19117647058823528
0.4028637156909408,-0.7728309015112037,0.19117647058823528
0.40290337934316994,-0.7719189682126107,0.19117647058823528
0.401931619863557,-0.7726354872329338,0.19117647058823528
0.4022489290813898,-0.7717886920270974,0.19117647058823528
0.40072187847056956,-0.7720492443981241,0.19117647058823528
0.4001467555132477,-0.771332725377801,0.19117647058823528
0.39925432333809296,-0.7706487754038561,0.19117647058823528
0.39778676820561637,-0.7699648254299114,0.19117647058823528
0.3973901316833254,-0.7681083897863471,0.19117647058823528
0.3969736633349199,-0.7669684731631058,0.19117647058823528
0.39574409011581785,-0.7650143303804064,0.19117647058823528
0.3938798984610503,-0.762539082855654,0.19117647058823528
0.39249167063303186,-0.7631578947368421,0.19117647058823528
0.3923330160241155,-0.7611711829077644,0.19117647058823528
0.39034983341266066,-0.7582399687337155,0.19117647058823528
0.3913612565445026,-0.7593473163105784,0.19117647058823528
0.3921545295890846,-0.7594775924960917,0.19117647058823528
0.39126209741392987,-0.759607868681605,0.19117647058823528
0.39187688402348086,-0.7593798853569568,0.19117647058823528
0.39191654767571,-0.7604546638874414,0.19117647058823528
0.39312628906869745,-0.7606826472120897,0.19117647058823528
0.3939393939393939,-0.7607152162584679,0.19117647058823528
0.3932452800253847,-0.7617574257425742,0.19117647058823528
0.3957044264635888,-0.7638418447107869,0.19117647058823528
0.3955656036807869,-0.7636789994788953,0.19117647058823528
0.3968546723782326,-0.7668056279312142,0.19117647058823528
0.39715214976995084,-0.7679129755080771,0.19117647058823528
0.39957163255592576,-0.7687272016675352,0.19117647058823528
0.4008210376011423,-0.7710721730067743,0.19117647058823528
0.4005235602094241,-0.7716258467952058,0.19117647058823528
0.4016738061240679,-0.7746221990620115,0.19117647058823528
0.4018721243852134,-0.7739382490880667,0.19117647058823528
0.4024670791686498,-0.7741988014590933,0.19117647058823528
0.40173330160241155,-0.7759575299635226,0.19117647058823528
0.40211010629858795,-0.7734822824387702,0.19117647058823528
0.4018721243852134,-0.7738731109953101,0.19117647058823528
0.4027645565603681,-0.7721795205836373,0.19117647058823528
0.4011383468189751,-0.7729937467430954,0.19117647058823528
0.4009995240361732,-0.7698996873371547,0.19117647058823528
0.3995518007298112,-0.7709744658676394,0.19117647058823528
0.3996311280342694,-0.7692483064095883,0.19117647058823528
0.397013326987149,-0.7674244398124023,0.19117647058823528
0.3958432492463906,-0.7671638874413758,0.19117647058823528
0.3962398857686816,-0.7677175612298072,0.19117647058823528
0.3943360304616849,-0.7635161542470037,0.19117647058823528
0.39336427098207205,-0.7617248566961959,0.19117647058823528
0.39146041567507533,-0.7612688900468995,0.19117647058823528
0.39247183880691733,-0.7601289734236581,0.19117647058823528
0.391519911153419,-0.7580771235018239,0.19117647058823528
0.39165873393622086,-0.7581422615945805,0.19117647058823528
0.3919760431540536,-0.7595752996352266,0.19117647058823528
0.3922933523718864,-0.759607868681605,0.19117647058823528
0.3922933523718864,-0.759607868681605,0.19117647058823528
0.3920752022846264,-0.7602266805627931,0.19117647058823528
0.39296763445978106,-0.761529442417926,0.19117647058823528
0.3947921624623195,-0.7611711829077644,0.19117647058823528
0.395387117245756,-0.7620179781136008,0.19117647058823528
0.39558543550690145,-0.7646886399166233,0.19117647058823528
0.39602173568142157,-0.7643955184992184,0.19117647058823528
0.39830239568459463,-0.7664799374674309,0.19117647058823528
0.39887751864191656,-0.7688900468994267,0.19117647058823528
0.4009796922100587,-0.7689226159458051,0.19117647058823528
0.4016143106457243,-0.7718212610734758,0.19117647058823528
0.40072187847056956,-0.772961177696717,0.19117647058823528
0.40304220212597175,-0.7745244919228765,0.19117647058823528
0.4028438838648263,-0.7743616466909848,0.19117647058823528
0.4022489290813898,-0.7726680562793121,0.19117647058823528
0.4030620339520863,-0.7727983324648254,0.19117647058823528
0.40195145168967156,-0.7738079729025534,0.19117647058823528
0.400702046644455,-0.7729286086503387,0.19117647058823528
0.4009003649056005,-0.7704207920792079,0.19117647058823528
0.40026574646993496,-0.7716909848879625,0.19117647058823528
0.39895684594637476,-0.7708116206357478,0.19117647058823528
0.39941297794700936,-0.7696065659197499,0.19117647058823528
0.3970331588132635,-0.7671313183949974,0.19117647058823528
0.39713231794383624,-0.766382230328296,0.19117647058823528
0.39590274472473425,-0.7644932256383533,0.19117647058823528
0.39213469776297,-0.7626367899947889,0.19117647058823528
0.3936220847215612,-0.7622785304846275,0.19117647058823528
0.3913612565445026,-0.7601289734236581,0.19117647058823528
0.39185705219736633,-0.7586307972902553,0.19117647058823528
0.39078613358718073,-0.7569046378322043,0.19117647058823528
0.39146041567507533,-0.7583702449192288,0.19117647058823528
0.3923726796763446,-0.7588913496612819,0.19117647058823528
0.39096462002221166,-0.7575234497133924,0.19117647058823528
0.39251150245914646,-0.7596730067743617,0.19117647058823528
0.39231318419800093,-0.7592821782178217,0.19117647058823528
0.393542757417103,-0.7601941115164148,0.19117647058823528
0.3943161986355704,-0.7609431995831162,0.19117647058823528
0.39629938124702524,-0.7610083376758728,0.19117647058823528
0.3962597175947961,-0.7630601875977071,0.19117647058823528
0.39756861811835636,-0.7657308494007296,0.19117647058823528
0.39740996350943997,-0.7658611255862429,0.19117647058823528
0.39840155481516737,-0.7670010422094841,0.19117647058823528
0.4006822148183405,-0.7696391349661282,0.19117647058823528
0.401316833254006,-0.7711698801459094,0.19117647058823528
0.4021497699508171,-0.7706487754038561,0.19117647058823528
0.4040337934316992,-0.774785044293903,0.19117647058823528
0.40393463430112647,-0.7752735799895779,0.19117647058823528
0.4030620339520863,-0.7718863991662324,0.19117647058823528
0.4031016976043154,-0.7745244919228765,0.19117647058823528
0.4033793431699191,-0.7730588848358521,0.19117647058823528
0.4026059019514517,-0.7730588848358521,0.19117647058823528
0.4025265746469935,-0.7730263157894737,0.19117647058823528
0.4015151515151515,-0.7722446586763939,0.19117647058823528
0.3999881009043313,-0.7696391349661282,0.19117647058823528
0.39945264159923843,-0.7698019801980198,0.19117647058823528
0.39994843725210216,-0.7682712350182387,0.19117647058823528
0.3974694589877836,-0.7681409588327254,0.19117647058823528
0.3970331588132635,-0.7652423137050547,0.19117647058823528
0.39568459463747424,-0.7655354351224596,0.19117647058823528
0.3937807393304775,-0.7632230328295988,0.19117647058823528
0.39251150245914646,-0.7623110995310057,0.19117647058823528
0.3931064572425829,-0.7616597186034393,0.19117647058823528
0.39110344280501347,-0.7617248566961959,0.19117647058823528
0.39096462002221166,-0.7599986972381448,0.19117647058823528
0.3909844518483262,-0.758598228243877,0.19117647058823528
0.39187688402348086,-0.7589564877540386,0.19117647058823528
0.39191654767571,-0.7599335591453882,0.19117647058823528
0.3923330160241155,-0.7595752996352266,0.19117647058823528
0.392927970807552,-0.7606500781657113,0.19117647058823528
0.3943360304616849,-0.7609431995831162,0.19117647058823528
0.3953077899412978,-0.7627996352266806,0.19117647058823528
0.39637870855148344,-0.76436294945284,0.19117647058823528
0.3973504680310963,-0.7638092756644086,0.19117647058823528
0.3979652546406473,-0.7656331422615946,0.19117647058823528
0.39784626368396003,-0.7664147993746743,0.19117647058823528
0.3999682690782167,-0.7693785825951016,0.19117647058823528
0.40211010629858795,-0.7706487754038561,0.19117647058823528
0.402328256385848,-0.7703882230328296,0.19117647058823528
0.40203077899412976,-0.7726029181865555,0.19117647058823528
0.4036173250832937,-0.7727331943720688,0.19117647058823528
0.4003649056005077,-0.7711698801459094,0.19117647058823528
0.39941297794700936,-0.7713001563314226,0.19117647058823528
0.3993733142947803,-0.768401511203752,0.19117647058823528
0.3972711407266381,-0.76921573736321,0.19117647058823528
0.3962398857686816,-0.7672615945805107,0.19117647058823528
0.39691416785657624,-0.7657959874934862,0.19117647058823528
0.3947128351578613,-0.7634835852006253,0.19117647058823528
0.39267015706806285,-0.7619854090672226,0.19117647058823528
0.39304696176423926,-0.7615620114643044,0.19117647058823528
0.39187688402348086,-0.7604872329338197,0.19117647058823528
0.39181738854513726,-0.7600964043772799,0.19117647058823528
0.39171822941456447,-0.7590541948931735,0.19117647058823528
0.39193637950182453,-0.7589890568004168,0.19117647058823528
0.3921743614151991,-0.7580771235018239,0.19117647058823528
0.39249167063303186,-0.7612688900468995,0.19117647058823528
0.3928684753292083,-0.7613340281396561,0.19117647058823528
0.392927970807552,-0.7604872329338197,0.19117647058823528
0.39435586228779945,-0.7621156852527358,0.19117647058823528
0.39552594002855784,-0.765372589890568,0.19117647058823528
0.3966960177693162,-0.7645909327774882,0.19117647058823528
0.3966960177693162,-0.7664147993746743,0.19117647058823528
0.3973504680310963,-0.7655354351224596,0.19117647058823528
0.3995914643820403,-0.7698345492443981,0.19117647058823528
0.4001665873393622,-0.7705836373110996,0.19117647058823528
0.4012970014278915,-0.7724400729546639,0.19117647058823528
0.4024869109947644,-0.7734497133923919,0.19117647058823528
0.4032603522132318,-0.7751433038040646,0.19117647058823528
0.4031810249087736,-0.7734822824387702,0.19117647058823528
0.4030818657782009,-0.7722772277227723,0.19117647058823528
0.4033991749960336,-0.7731240229286086,0.19117647058823528
0.40149531968903696,-0.7728309015112037,0.19117647058823528
0.40211010629858795,-0.7710721730067743,0.19117647058823528
0.40203077899412976,-0.7721795205836373,0.19117647058823528
0.40234808821196255,-0.7730263157894737,0.19117647058823528
0.4002062509915913,-0.7698996873371547,0.19117647058823528
0.39903617325083296,-0.7695739968733716,0.19117647058823528
0.39903617325083296,-0.7695739968733716,0.19117647058823528
0.39903617325083296,-0.7695739968733716,0.19117647058823528
0.39903617325083296,-0.7695739968733716,0.19117647058823528
0.39903617325083296,-0.7695739968733716,0.19117647058823528
0.39802475011899097,-0.7692808754559667,0.19117647058823528
0.39756861811835636,-0.7684340802501303,0.19117647058823528
0.39637870855148344,-0.7652748827514331,0.19117647058823528
0.393542757417103,-0.7642652423137051,0.19117647058823528
0.3939592257655085,-0.7639721208963002,0.19117647058823528
0.39334443915595746,-0.7621482542991141,0.19117647058823528
0.3930667935903538,-0.7602918186555497,0.19117647058823528
0.39247183880691733,-0.7582725377800938,0.19117647058823528
0.39497064889735045,-0.7632556018759771,0.19117647058823528
0.3944550214183722,-0.7626367899947889,0.19117647058823528
0.3961010629858797,-0.76416753517457,0.19117647058823528
0.39737029985721084,-0.7676849921834289,0.19117647058823528
0.39824290020625097,-0.767391870766024,0.19117647058823528
0.39838172298905283,-0.7694111516414799,0.19117647058823528
0.39980961446930036,-0.7694111516414799,0.19117647058823528
0.40149531968903696,-0.7719189682126107,0.19117647058823528
0.4011383468189751,-0.7736776967170401,0.19117647058823528
0.40226876090750435,-0.7741010943199583,0.19117647058823528
0.4027645565603681,-0.7743290776446066,0.19117647058823528
0.4030818657782009,-0.7746547681083897,0.19117647058823528
0.4031016976043154,-0.7752410109431996,0.19117647058823528
0.4018522925590988,-0.7746221990620115,0.19117647058823528
0.40226876090750435,-0.7723097967691506,0.19117647058823528
0.4017927970807552,-0.7727331943720688,0.19117647058823528
0.4011780104712042,-0.7718538301198541,0.19117647058823528
0.4001269236871331,-0.7716258467952058,0.19117647058823528
0.39980961446930036,-0.7709093277748827,0.19117647058823528
0.39840155481516737,-0.7707464825429912,0.19117647058823528
0.3974694589877836,-0.7679781136008338,0.19117647058823528
0.39629938124702524,-0.7681083897863471,0.19117647058823528
0.39520863081072505,-0.7655028660760813,0.19117647058823528
0.39397905759162305,-0.7624739447628973,0.19117647058823528
0.393542757417103,-0.760617509119333,0.19117647058823528
0.3934039346343011,-0.7608454924439813,0.19117647058823528
0.394375694113914,-0.7618551328817093,0.19117647058823528
0.3946533396795177,-0.7628647733194373,0.19117647058823528
0.3953474535935269,-0.7620505471599791,0.19117647058823528
0.39725130890052357,-0.7650468994267848,0.19117647058823528
0.39824290020625097,-0.7674570088587807,0.19117647058823528
0.39808424559733463,-0.7664473684210527,0.19117647058823528
0.39867920038077104,-0.7681735278791036,0.19117647058823528
0.4009201967317151,-0.7692483064095883,0.19117647058823528
0.40189195621132795,-0.7716584158415841,0.19117647058823528
0.40226876090750435,-0.7734822824387702,0.19117647058823528
0.40272489290813895,-0.7728309015112037,0.19117647058823528
0.40397429795335554,-0.7750781657113079,0.19117647058823528
0.4030818657782009,-0.7738079729025534,0.19117647058823528
0.4035379977788355,-0.7744267847837415,0.19117647058823528
0.4026455656036808,-0.7753061490359562,0.19117647058823528
0.4026852292559099,-0.774785044293903,0.19117647058823528
0.40290337934316994,-0.7728309015112037,0.19117647058823528
0.4021696017769316,-0.7720818134445023,0.19117647058823528
0.4015548151673806,-0.7735148514851485,0.19117647058823528
0.4000475963826749,-0.7710721730067743,0.19117647058823528
0.39861970490242743,-0.7698345492443981,0.19117647058823528
0.3985007139457401,-0.7675547159979156,0.19117647058823528
0.391519911153419,-0.7594450234497134,0.19117647058823528
0.39296763445978106,-0.759607868681605,0.19117647058823528
0.39195621132793906,-0.7595101615424701,0.19117647058823528
0.39223385689354273,-0.7601941115164148,0.19117647058823528
0.3934039346343011,-0.7595427305888484,0.19117647058823528
0.3930866254164683,-0.759607868681605,0.19117647058823528
0.39358242106933206,-0.7614643043251693,0.19117647058823528
0.3955656036807869,-0.7622785304846275,0.19117647058823528
0.39606139933365064,-0.7621808233454924,0.19117647058823528
0.39635887672536885,-0.765568004168838,0.19117647058823528
0.3977471045533873,-0.7685643564356436,0.19117647058823528
0.39832222751070917,-0.7651120375195414,0.19117647058823528
0.39903617325083296,-0.7675221469515373,0.19117647058823528
0.4014556560368079,-0.7710721730067743,0.19117647058823528
0.401713469776297,-0.7717235539343408,0.19117647058823528
0.4024869109947644,-0.772146951537259,0.19117647058823528
0.4041527843883865,-0.7739056800416884,0.19117647058823528
0.403954466127241,-0.7741010943199583,0.19117647058823528
0.4018721243852134,-0.7727657634184472,0.19117647058823528
0.4022489290813898,-0.7754364252214695,0.19117647058823528
0.4026455656036808,-0.7729937467430954,0.19117647058823528
0.4022489290813898,-0.7741988014590933,0.19117647058823528
0.4016738061240679,-0.7729286086503387,0.19117647058823528
0.39957163255592576,-0.7712024491922876,0.19117647058823528
0.3988973504680311,-0.7694762897342365,0.19117647058823528
0.3982032365540219,-0.7711698801459094,0.19117647058823528
0.3964778676820562,-0.7679781136008338,0.19117647058823528
0.4021696017769316,-0.7720818134445023,0.19117647058823528
0.4015548151673806,-0.7735148514851485,0.19117647058823528
0.4000475963826749,-0.7710721730067743,0.19117647058823528
0.39861970490242743,-0.7698345492443981,0.19117647058823528
0.3985007139457401,-0.7675547159979156,0.19117647058823528
0.391519911153419,-0.7594450234497134,0.19117647058823528
0.39296763445978106,-0.759607868681605,0.19117647058823528
0.39195621132793906,-0.7595101615424701,0.19117647058823528
0.39223385689354273,-0.7601941115164148,0.19117647058823528
0.3934039346343011,-0.7595427305888484,0.19117647058823528
0.3930866254164683,-0.759607868681605,0.19117647058823528
0.39358242106933206,-0.7614643043251693,0.19117647058823528
0.3955656036807869,-0.7622785304846275,0.19117647058823528
0.39606139933365064,-0.7621808233454924,0.19117647058823528
0.39635887672536885,-0.765568004168838,0.19117647058823528
0.3977471045533873,-0.7685643564356436,0.19117647058823528
0.39832222751070917,-0.7651120375195414,0.19117647058823528
0.39903617325083296,-0.7675221469515373,0.19117647058823528
0.4014556560368079,-0.7710721730067743,0.19117647058823528
0.401713469776297,-0.7717235539343408,0.19117647058823528
0.4024869109947644,-0.772146951537259,0.19117647058823528
0.4041527843883865,-0.7739056800416884,0.19117647058823528
0.403954466127241,-0.7741010943199583,0.19117647058823528
0.4018721243852134,-0.7727657634184472,0.19117647058823528
0.4022489290813898,-0.7754364252214695,0.19117647058823528
0.4026455656036808,-0.7729937467430954,0.19117647058823528
0.4022489290813898,-0.7741988014590933,0.19117647058823528
0.4016738061240679,-0.7729286086503387,0.19117647058823528
0.39957163255592576,-0.7712024491922876,0.19117647058823528
0.3988973504680311,-0.7694762897342365,0.19117647058823528
0.3982032365540219,-0.7711698801459094,0.19117647058823528
0.3964778676820562,-0.7679781136008338,0.19117647058823528
0.4021696017769316,-0.7720818134445023,0.19117647058823528
0.4015548151673806,-0.7735148514851485,0.19117647058823528
0.4000475963826749,-0.7710721730067743,0.19117647058823528
0.39861970490242743,-0.7698345492443981,0.19117647058823528
0.3985007139457401,-0.7675547159979156,0.19117647058823528
0.391519911153419,-0.7594450234497134,0.19117647058823528
0.39296763445978106,-0.759607868681605,0.19117647058823528
0.39195621132793906,-0.7595101615424701,0.19117647058823528
0.39223385689354273,-0.7601941115164148,0.19117647058823528
0.3934039346343011,-0.7595427305888484,0.19117647058823528
0.3930866254164683,-0.759607868681605,0.19117647058823528
0.39358242106933206,-0.7614643043251693,0.19117647058823528
0.3955656036807869,-0.7622785304846275,0.19117647058823528
0.39606139933365064,-0.7621808233454924,0.19117647058823528
0.39635887672536885,-0.765568004168838,0.19117647058823528
0.3977471045533873,-0.7685643564356436,0.19117647058823528
0.39832222751070917,-0.7651120375195414,0.19117647058823528
0.39903617325083296,-0.7675221469515373,0.19117647058823528
0.4014556560368079,-0.7710721730067743,0.19117647058823528
0.401713469776297,-0.7717235539343408,0.19117647058823528
0.4024869109947644,-0.772146951537259,0.19117647058823528
0.4041527843883865,-0.7739056800416884,0.19117647058823528
0.403954466127241,-0.7741010943199583,0.19117647058823528
0.4018721243852134,-0.7727657634184472,0.19117647058823528
0.4022489290813898,-0.7754364252214695,0.19117647058823528
0.4026455656036808,-0.7729937467430954,0.19117647058823528
0.4022489290813898,-0.7741988014590933,0.19117647058823528
0.4016738061240679,-0.7729286086503387,0.19117647058823528
0.39957163255592576,-0.7712024491922876,0.19117647058823528
0.3988973504680311,-0.7694762897342365,0.19117647058823528
0.3982032365540219,-0.7711698801459094,0.19117647058823528
0.3964778676820562,-0.7679781136008338,0.19117647058823528
0.3968745042043471,-0.7662519541427827,0.19117647058823528
0.3957242582897033,-0.7660565398645127,0.19117647058823528
0.3934832619387593,-0.7666427826993225,0.19117647058823528
0.3936419165476757,-0.7622459614382491,0.19117647058823528
0.39173806124067906,-0.7615620114643044,0.19117647058823528
0.3922140250674282,-0.7610083376758728,0.19117647058823528
0.3905878153260352,-0.7581096925482022,0.19117647058823528
0.38993336506425513,-0.759607868681605,0.19117647058823528
0.3922933523718864,-0.7601615424700364,0.19117647058823528
0.3914802475011899,-0.7608129233976029,0.19117647058823528
0.3908654608916389,-0.7602266805627931,0.19117647058823528
0.39247183880691733,-0.7598358520062533,0.19117647058823528
0.3927693161986356,-0.7619854090672226,0.19117647058823528
0.3927693161986356,-0.7619854090672226,0.19117647058823528
0.3927693161986356,-0.7619854090672226,0.19117647058823528
0.3927693161986356,-0.7619854090672226,0.19117647058823528
0.3927693161986356,-0.7619854090672226,0.19117647058823528
0.39397905759162305,-0.7608454924439813,0.19117647058823528
0.3944550214183722,-0.7628322042730589,0.19117647058823528
0.39544661272409964,-0.7634835852006253,0.19117647058823528
0.39715214976995084,-0.7666427826993225,0.19117647058823528
0.39671584959543077,-0.7667404898384576,0.19117647058823528
0.39786609551007457,-0.7684992183428869,0.19117647058823528
0.39949230525146756,-0.7696391349661282,0.19117647058823528
0.3992146596858639,-0.7701602397081814,0.19117647058823528
0.4008408694272569,-0.7718212610734758,0.19117647058823528
0.4023084245597335,-0.7736125586242835,0.19117647058823528
0.4018522925590988,-0.772961177696717,0.19117647058823528
0.40335951134380454,-0.7753712871287128,0.19117647058823528
0.4030818657782009,-0.7738405419489317,0.19117647058823528
0.4019911153419007,-0.772146951537259,0.19117647058823528
0.4024075836903062,-0.7743942157373632,0.19117647058823528
0.401931619863557,-0.772961177696717,0.19117647058823528
0.40018641916547676,-0.7708767587285045,0.19117647058823528
0.39978978264318576,-0.7726029181865555,0.19117647058823528
0.39856020942408377,-0.7698345492443981,0.19117647058823528
0.3970529906393781,-0.7696065659197499,0.19117647058823528
0.3964976995081707,-0.7689551849921834,0.19117647058823528
0.39566476281135965,-0.7675872850442939,0.19117647058823528
0.3939393939393939,-0.7650143303804064,0.19117647058823528
0.39326511185149926,-0.7631253256904638,0.19117647058823528
0.3927693161986356,-0.7620505471599791,0.19117647058823528
0.39191654767571,-0.7608780614903595,0.19117647058823528
0.39110344280501347,-0.7601289734236581,0.19117647058823528
0.3905878153260352,-0.7587610734757686,0.19117647058823528
0.3920157068062827,-0.7596730067743617,0.19117647058823528
0.3919958749801682,-0.7597055758207399,0.19117647058823528
0.3912819292400444,-0.7592496091714435,0.19117647058823528
0.39265032524194826,-0.7586633663366337,0.19117647058823528
0.39227352054577186,-0.7606500781657113,0.19117647058823528
0.3925511661113755,-0.7599661281917666,0.19117647058823528
0.394772330636205,-0.7610409067222512,0.19117647058823528
0.3954862763763287,-0.7632881709223553,0.19117647058823528
0.39651753133428524,-0.763451016154247,0.19117647058823528
0.3977272727272727,-0.76455836373111,0.19117647058823528
0.39715214976995084,-0.7656005732152162,0.19117647058823528
0.40022608281770583,-0.7683363731109953,0.19117647058823528
0.4008607012533714,-0.7696717040125065,0.19117647058823528
0.4020902744724734,-0.7720166753517457,0.19117647058823528
0.4025662382992226,-0.7723097967691506,0.19117647058823528
0.4027050610820244,-0.7729937467430954,0.19117647058823528
0.4030818657782009,-0.7714630015633143,0.19117647058823528
0.4030025384737427,-0.7740359562272017,0.19117647058823528
0.4023877518641917,-0.7730588848358521,0.19117647058823528
0.401931619863557,-0.772961177696717,0.19117647058823528
0.40018641916547676,-0.7708767587285045,0.19117647058823528
0.39978978264318576,-0.7726029181865555,0.19117647058823528
0.39856020942408377,-0.7698345492443981,0.19117647058823528
0.3970529906393781,-0.7696065659197499,0.19117647058823528
0.3964976995081707,-0.7689551849921834,0.19117647058823528
0.39566476281135965,-0.7675872850442939,0.19117647058823528
0.3939393939393939,-0.7650143303804064,0.19117647058823528
0.39326511185149926,-0.7631253256904638,0.19117647058823528
0.3927693161986356,-0.7620505471599791,0.19117647058823528
0.39191654767571,-0.7608780614903595,0.19117647058823528
0.39110344280501347,-0.7601289734236581,0.19117647058823528
0.3905878153260352,-0.7587610734757686,0.19117647058823528
0.3920157068062827,-0.7596730067743617,0.19117647058823528
0.3919958749801682,-0.7597055758207399,0.19117647058823528
0.3912819292400444,-0.7592496091714435,0.19117647058823528
0.39265032524194826,-0.7586633663366337,0.19117647058823528
0.39227352054577186,-0.7606500781657113,0.19117647058823528
0.3925511661113755,-0.7599661281917666,0.19117647058823528
0.394772330636205,-0.7610409067222512,0.19117647058823528
0.3954862763763287,-0.7632881709223553,0.19117647058823528
0.39651753133428524,-0.763451016154247,0.19117647058823528
0.3977272727272727,-0.76455836373111,0.19117647058823528
0.39715214976995084,-0.7656005732152162,0.19117647058823528
0.40022608281770583,-0.7683363731109953,0.19117647058823528
0.4008607012533714,-0.7696717040125065,0.19117647058823528
0.4020902744724734,-0.7720166753517457,0.19117647058823528
0.4025662382992226,-0.7723097967691506,0.19117647058823528
0.4027050610820244,-0.7729937467430954,0.19117647058823528
0.4030818657782009,-0.7714630015633143,0.19117647058823528
0.4030025384737427,-0.7740359562272017,0.19117647058823528
0.4023877518641917,-0.7730588848358521,0.19117647058823528
0.4009201967317151,-0.7714304325169359,0.19117647058823528
0.4009003649056005,-0.7731240229286086,0.19117647058823528
0.40026574646993496,-0.7718863991662324,0.19117647058823528
0.4008408694272569,-0.7715281396560709,0.19117647058823528
0.3993733142947803,-0.770225377800938,0.19117647058823528
0.39887751864191656,-0.7698019801980198,0.19117647058823528
0.39715214976995084,-0.7680106826472121,0.19117647058823528
0.3967753450737744,-0.7660565398645127,0.19117647058823528
0.3958432492463906,-0.7649166232412715,0.19117647058823528
0.3944946850706013,-0.7627670661803022,0.19117647058823528
0.3940782167221958,-0.7612037519541428,0.19117647058823528
0.3940980485483103,-0.7593147472642001,0.19117647058823528
0.3926106615897192,-0.7602266805627931,0.19117647058823528
0.3914009201967317,-0.7600638353309015,0.19117647058823528
0.39213469776297,-0.7585005211047421,0.19117647058823528
0.39118277010947167,-0.7594450234497134,0.19117647058823528
0.3928486435030938,-0.7596730067743617,0.19117647058823528
0.39300729811201013,-0.7598358520062533,0.19117647058823528
0.3935625892432175,-0.7609757686294946,0.19117647058823528
0.3947128351578613,-0.7603569567483064,0.19117647058823528
0.3946533396795177,-0.7612363210005211,0.19117647058823528
0.3955656036807869,-0.7627019280875456,0.19117647058823528
0.39655719498651437,-0.7648514851485149,0.19117647058823528
0.39756861811835636,-0.7642978113600833,0.19117647058823528
0.3992146596858639,-0.7647537780093799,0.19117647058823528
0.39907583690306203,-0.7683689421573736,0.19117647058823528
0.40030541012216403,-0.7693460135487233,0.19117647058823528
0.40125733777566236,-0.7697042730588849,0.19117647058823528
0.4015548151673806,-0.7709744658676394,0.19117647058823528
0.40290337934316994,-0.7716258467952058,0.19117647058823528
0.40304220212597175,-0.7715932777488275,0.19117647058823528
0.4021696017769316,-0.773352006253257,0.19117647058823528
0.4009201967317151,-0.7714304325169359,0.19117647058823528
0.4009003649056005,-0.7731240229286086,0.19117647058823528
0.40026574646993496,-0.7718863991662324,0.19117647058823528
0.4008408694272569,-0.7715281396560709,0.19117647058823528
0.3993733142947803,-0.770225377800938,0.19117647058823528
0.39887751864191656,-0.7698019801980198,0.19117647058823528
0.39715214976995084,-0.7680106826472121,0.19117647058823528
0.3967753450737744,-0.7660565398645127,0.19117647058823528
0.3958432492463906,-0.7649166232412715,0.19117647058823528
0.3944946850706013,-0.7627670661803022,0.19117647058823528
0.3940782167221958,-0.7612037519541428,0.19117647058823528
0.3940980485483103,-0.7593147472642001,0.19117647058823528
0.3926106615897192,-0.7602266805627931,0.19117647058823528
0.3914009201967317,-0.7600638353309015,0.19117647058823528
0.39213469776297,-0.7585005211047421,0.19117647058823528
0.39118277010947167,-0.7594450234497134,0.19117647058823528
0.3928486435030938,-0.7596730067743617,0.19117647058823528
0.39300729811201013,-0.7598358520062533,0.19117647058823528
0.3935625892432175,-0.7609757686294946,0.19117647058823528
0.3947128351578613,-0.7603569567483064,0.19117647058823528
0.3946533396795177,-0.7612363210005211,0.19117647058823528
0.3955656036807869,-0.7627019280875456,0.19117647058823528
0.39655719498651437,-0.7648514851485149,0.19117647058823528
0.39756861811835636,-0.7642978113600833,0.19117647058823528
0.3992146596858639,-0.7647537780093799,0.19117647058823528
0.39907583690306203,-0.7683689421573736,0.19117647058823528
0.40030541012216403,-0.7693460135487233,0.19117647058823528
0.40125733777566236,-0.7697042730588849,0.19117647058823528
0.4015548151673806,-0.7709744658676394,0.19117647058823528
0.40290337934316994,-0.7716258467952058,0.19117647058823528
0.40304220212597175,-0.7715932777488275,0.19117647058823528
0.4021696017769316,-0.773352006253257,0.19117647058823528
0.40373631603998095,-0.7735799895779052,0.19117647058823528
0.40157464699349515,-0.7722772277227723,0.19117647058823528
0.40203077899412976,-0.7725703491401772,0.19117647058823528
0.4013763287323497,-0.7726029181865555,0.19117647058823528
0.39973028716484216,-0.7718538301198541,0.19117647058823528
0.39925432333809296,-0.7699322563835331,0.19117647058823528
0.3984213866412819,-0.7688900468994267,0.19117647058823528
0.397013326987149,-0.7670010422094841,0.19117647058823528
0.3970331588132635,-0.7661542470036478,0.19117647058823528
0.3962398857686816,-0.7657634184471078,0.19117647058823528
0.3946335078534031,-0.7628647733194373,0.19117647058823528
0.393760907504363,-0.7618225638353309,0.19117647058823528
0.39374107567824845,-0.7603569567483064,0.19117647058823528
0.3929081389814374,-0.7598358520062533,0.19117647058823528
0.39251150245914646,-0.7597055758207399,0.19117647058823528
0.39142075202284626,-0.7581422615945805,0.19117647058823528
0.3922140250674282,-0.7578165711307973,0.19117647058823528
0.3922140250674282,-0.7578165711307973,0.19117647058823528
0.3922140250674282,-0.7578165711307973,0.19117647058823528
0.3922140250674282,-0.7578165711307973,0.19117647058823528
0.3922140250674282,-0.7578165711307973,0.19117647058823528
0.39247183880691733,-0.7583702449192288,0.19117647058823528
0.3928684753292083,-0.7583702449192288,0.19117647058823528
0.39328494367761385,-0.760617509119333,0.19117647058823528
0.39267015706806285,-0.760422094841063,0.19117647058823528
0.3939988894177376,-0.7611386138613861,0.19117647058823528
0.39560526733301604,-0.7633207399687337,0.19117647058823528
0.3962002221164525,-0.7638418447107869,0.19117647058823528
0.39729097255275264,-0.7656005732152162,0.19117647058823528
0.3975091226400127,-0.7675872850442939,0.19117647058823528
0.39802475011899097,-0.7690528921313184,0.19117647058823528
0.4006227193399968,-0.7698671182907765,0.19117647058823528
0.4016341424718388,-0.7705510682647212,0.19117647058823528
0.402328256385848,-0.7722120896300156,0.19117647058823528
0.402546406473108,-0.7721795205836373,0.19117647058823528
0.40242741551642075,-0.7744267847837415,0.19117647058823528
0.4026852292559099,-0.7729286086503387,0.19117647058823528
0.40349833412660635,-0.7750781657113079,0.19117647058823528
0.4025662382992226,-0.7750455966649297,0.19117647058823528
0.40242741551642075,-0.7729937467430954,0.19117647058823528
0.40157464699349515,-0.7724400729546639,0.19117647058823528
0.40119784229731875,-0.7724400729546639,0.19117647058823528
0.40018641916547676,-0.7715607087024492,0.19117647058823528
0.3986593685546565,-0.7704533611255863,0.19117647058823528
0.3978264318578455,-0.7668056279312142,0.19117647058823528
0.39671584959543077,-0.7673593017196456,0.19117647058823528
0.39629938124702524,-0.7674244398124023,0.19117647058823528
0.3949508170712359,-0.7633207399687337,0.19117647058823528
0.39475249881009045,-0.7630601875977071,0.19117647058823528
0.3937212438521339,-0.761627149557061,0.19117647058823528
0.3939195621132794,-0.7614643043251693,0.19117647058823528
0.3923726796763446,-0.7586959353830119,0.19117647058823528
0.3926899888941774,-0.7586959353830119,0.19117647058823528
0.3925511661113755,-0.7600638353309015,0.19117647058823528
0.39132159289227353,-0.7610083376758728,0.19117647058823528
0.39243217515468826,-0.7589564877540386,0.19117647058823528
0.3925511661113755,-0.7601941115164148,0.19117647058823528
0.39350309376487386,-0.7606826472120897,0.19117647058823528
0.3944550214183722,-0.7610409067222512,0.19117647058823528
0.3949309852451214,-0.7599986972381448,0.19117647058823528
0.39667618594320164,-0.7652748827514331,0.19117647058823528
0.39798508646676184,-0.7660565398645127,0.19117647058823528
0.3970529906393781,-0.7655028660760813,0.19117647058823528
0.39869903220688563,-0.7667730588848358,0.19117647058823528
0.4006028875138823,-0.7697368421052632,0.19117647058823528
0.4012970014278915,-0.7696717040125065,0.19117647058823528
0.40212993812470255,-0.7727006253256905,0.19117647058823528
0.40133666508012056,-0.7726680562793121,0.19117647058823528
0.40355782960495,-0.7744593538301199,0.19117647058823528
0.40280422021259715,-0.7755341323606045,0.19117647058823528
0.4037561478660955,-0.7742639395518499,0.19117647058823528
0.40203077899412976,-0.7724400729546639,0.19117647058823528
0.40173330160241155,-0.7740033871808234,0.19117647058823528
0.4022290972552753,-0.7726354872329338,0.19117647058823528
0.4009995240361732,-0.7705836373110996,0.19117647058823528
0.4013763287323497,-0.7714955706096925,0.19117647058823528
0.4000674282087895,-0.7697368421052632,0.19117647058823528
0.39883785498968743,-0.7679455445544554,0.19117647058823528
0.3975884499444709,-0.7686294945284002,0.19117647058823528
0.39671584959543077,-0.765372589890568,0.19117647058823528
0.3974297953355545,-0.7656657113079729,0.19117647058823528
0.3947128351578613,-0.764460656591975,0.19117647058823528
0.39358242106933206,-0.7618225638353309,0.19117647058823528
0.3934039346343011,-0.7605523710265764,0.19117647058823528
0.392531334285261,-0.7599986972381448,0.19117647058823528
0.392531334285261,-0.7599986972381448,0.19117647058823528
0.392531334285261,-0.7599986972381448,0.19117647058823528
0.392531334285261,-0.7599986972381448,0.19117647058823528
0.392531334285261,-0.7599986972381448,0.19117647058823528
0.3922140250674282,-0.7597055758207399,0.19117647058823528
0.39257099793749006,-0.7597381448671183,0.19117647058823528
0.3921545295890846,-0.7601615424700364,0.19117647058823528
0.39181738854513726,-0.7582725377800938,0.19117647058823528
0.393760907504363,-0.7587610734757686,0.19117647058823528
0.39296763445978106,-0.7600638353309015,0.19117647058823528
0.39320561637315565,-0.7604546638874414,0.19117647058823528
0.4006028875138823,-0.7697368421052632,0.19117647058823528
0.4012970014278915,-0.7696717040125065,0.19117647058823528
0.40212993812470255,-0.7727006253256905,0.19117647058823528
0.40133666508012056,-0.7726680562793121,0.19117647058823528
0.40355782960495,-0.7744593538301199,0.19117647058823528
0.40280422021259715,-0.7755341323606045,0.19117647058823528
0.4037561478660955,-0.7742639395518499,0.19117647058823528
0.40203077899412976,-0.7724400729546639,0.19117647058823528
0.40173330160241155,-0.7740033871808234,0.19117647058823528
0.4022290972552753,-0.7726354872329338,0.19117647058823528
0.4009995240361732,-0.7705836373110996,0.19117647058823528
0.4013763287323497,-0.7714955706096925,0.19117647058823528
0.4000674282087895,-0.7697368421052632,0.19117647058823528
0.39883785498968743,-0.7679455445544554,0.19117647058823528
0.3975884499444709,-0.7686294945284002,0.19117647058823528
0.39671584959543077,-0.765372589890568,0.19117647058823528
0.3974297953355545,-0.7656657113079729,0.19117647058823528
0.3947128351578613,-0.764460656591975,0.19117647058823528
0.39358242106933206,-0.7618225638353309,0.19117647058823528
0.3934039346343011,-0.7605523710265764,0.19117647058823528
0.392531334285261,-0.7599986972381448,0.19117647058823528
0.392531334285261,-0.7599986972381448,0.19117647058823528
0.392531334285261,-0.7599986972381448,0.19117647058823528
0.392531334285261,-0.7599986972381448,0.19117647058823528
0.392531334285261,-0.7599986972381448,0.19117647058823528
0.3922140250674282,-0.7597055758207399,0.19117647058823528
0.39257099793749006,-0.7597381448671183,0.19117647058823528
0.3921545295890846,-0.7601615424700364,0.19117647058823528
0.39181738854513726,-0.7582725377800938,0.19117647058823528
0.393760907504363,-0.7587610734757686,0.19117647058823528
0.39296763445978106,-0.7600638353309015,0.19117647058823528
0.39320561637315565,-0.7604546638874414,0.19117647058823528
0.39389973028716485,-0.760617509119333,0.19117647058823528
0.3964778676820562,-0.7611386138613861,0.19117647058823528
0.3968943360304617,-0.7640698280354351,0.19117647058823528
0.39713231794383624,-0.7655028660760813,0.19117647058823528
0.39814374107567824,-0.7670336112558624,0.19117647058823528
0.39941297794700936,-0.767391870766024,0.19117647058823528
0.40018641916547676,-0.7691505992704534,0.19117647058823528
0.40258607012533715,-0.7710721730067743,0.19117647058823528
0.4022290972552753,-0.7716909848879625,0.19117647058823528
0.4044899254323338,-0.7732542991141219,0.19117647058823528
0.40355782960495,-0.7744267847837415,0.19117647058823528
0.4026257337775662,-0.7745570609692548,0.19117647058823528
0.4030620339520863,-0.7746547681083897,0.19117647058823528
0.4020704426463589,-0.7735799895779052,0.19117647058823528
0.4026455656036808,-0.7729286086503387,0.19117647058823528
0.4025265746469935,-0.7723749348619072,0.19117647058823528
0.40119784229731875,-0.7721143824908807,0.19117647058823528
0.4000079327304458,-0.7696391349661282,0.19117647058823528
0.39911550055529116,-0.7707139134966128,0.19117647058823528
0.39863953672854197,-0.7663496612819176,0.19117647058823528
0.3975884499444709,-0.7681083897863471,0.19117647058823528
0.3978859273361891,-0.7649491922876498,0.19117647058823528
0.39405838489608125,-0.7645909327774882,0.19117647058823528
0.3930667935903538,-0.7620505471599791,0.19117647058823528
0.39191654767571,-0.7612037519541428,0.19117647058823528
0.3930667935903538,-0.7607152162584679,0.19117647058823528
0.3923330160241155,-0.7586959353830119,0.19117647058823528
0.3931064572425829,-0.7612037519541428,0.19117647058823528
0.3930667935903538,-0.7587285044293903,0.19117647058823528
0.39280897985086466,-0.7568394997394476,0.19117647058823528
0.39334443915595746,-0.759607868681605,0.19117647058823528
0.3943161986355704,-0.7601289734236581,0.19117647058823528
0.3941773758527685,-0.760519801980198,0.19117647058823528
